Date,DelPerc
01102019,77.08
03102019,66.71
04102019,53.08
07102019,81.11
08102019,81.11
09102019,88.44
10102019,75.46
11102019,40.25
14102019,60.61
15102019,88.46
16102019,63.96
17102019,68.81
18102019,76.12
21102019,76.12
22102019,99.59
23102019,74.89
24102019,47.85
25102019,73.04
28102019,90.56
29102019,84.08
30102019,81.2
31102019,26.33
01112019,80.4
04112019,66.91
05112019,80.27
06112019,84.21
07112019,62.45
08112019,79.22
11112019,70.58
12112019,70.58
13112019,70.55
14112019,58.28
15112019,74.73
18112019,84.28
19112019,69.5
20112019,85.04
21112019,95.1
22112019,67.31
25112019,52.47
26112019,65.97
27112019,86.26
28112019,97.26
29112019,67.62
02122019,71.4
03122019,77.92
04122019,46.05
05122019,87.68
06122019,95.65
09122019,57.8
10122019,96.75
11122019,87.64
12122019,88.38
13122019,63.31
16122019,64.35
17122019,51.55
18122019,61.82
19122019,79.46
20122019,66.02
23122019,80.47
24122019,82.47
25122019,82.47
26122019,88.67
27122019,49.46
30122019,51.89
31122019,65.68
01012020,81.08
02012020,79.68
03012020,91.69
06012020,99.33
07012020,95.65
08012020,73.34
09012020,87.55
10012020,55.26
13012020,93.27
14012020,58.54
15012020,34.82
16012020,74.6
17012020,60.29
20012020,82.91
21012020,60.05
22012020,74.1
23012020,62.78
24012020,41.34
27012020,74.68
28012020,51.91
29012020,82.75
30012020,55.29
31012020,72.14
03022020,86.44
04022020,79.79
05022020,74.44
06022020,66.68
07022020,98.33
10022020,85.47
11022020,80.82
12022020,74.21
13022020,60.33
14022020,89.33
17022020,98.05
18022020,95.43
19022020,95.44
20022020,68.63
21022020,68.63
24022020,85.9
25022020,91.85
26022020,81.67
27022020,59.72
28022020,72.62
02032020,74.51
03032020,89.93
04032020,95.89
05032020,64.15
06032020,87.03
09032020,86.35
10032020,86.35
11032020,99.25
12032020,99.16
13032020,78.57
16032020,63.44
17032020,91.28
18032020,77.78
19032020,76.89
20032020,92.87
23032020,92.53
24032020,73.34
25032020,90.93
26032020,78.7
27032020,59.36
30032020,58.12
31032020,83.99
01042020,99.83
02042020,99.83
03042020,82.32
06042020,82.32
07042020,64.14
08042020,61.56
09042020,62.53
10042020,62.53
13042020,67.29
15042020,91.59
16042020,69.74
17042020,81.08
20042020,80.92
21042020,41.77
22042020,70.14
23042020,79.21
24042020,74.74
27042020,84.24
28042020,41.82
29042020,62.72
30042020,84.59
01052020,84.59
04052020,71.21
05052020,84.8
06052020,83.51
07052020,53.36
08052020,87.59
11052020,97.1
12052020,56.55
13052020,57.98
14052020,99.25
15052020,86.69
18052020,87.4
19052020,94.85
20052020,61.82
21052020,98.37
22052020,76.2
25052020,76.2
26052020,71.3
27052020,97.54
28052020,76.74
29052020,58.41
01062020,80.01
02062020,81.37
03062020,74.81
04062020,70.94
05062020,87.51
08062020,78.98
09062020,79.8
10062020,89.96
11062020,72.14
12062020,72.05
15062020,81.64
16062020,62.84
17062020,66.58
18062020,69.01
19062020,46.44
22062020,64.62
23062020,82.76
24062020,61.93
25062020,55.48
26062020,71.14
29062020,69.77
30062020,50.73
01072020,67.06
02072020,81.67
03072020,79.46
06072020,73.9
07072020,54.9
08072020,95.96
09072020,43.57
10072020,54.02
13072020,75.49
14072020,82.49
15072020,76.36
16072020,40.26
17072020,66.08
20072020,68.98
21072020,44.28
22072020,79.0
23072020,49.72
24072020,61.21
27072020,52.7
28072020,50.06
29072020,51.83
30072020,46.53
31072020,68.41
03082020,37.21
04082020,59.13
05082020,57.45
06082020,65.67
07082020,62.83
10082020,57.1
11082020,59.74
12082020,64.6
13082020,61.32
14082020,46.21
17082020,34.47
18082020,41.94
19082020,72.52
20082020,72.83
21082020,61.67
24082020,64.0
25082020,86.84
26082020,51.75
27082020,83.25
28082020,50.6
31082020,78.22
01092020,48.85
02092020,34.69
03092020,64.9
04092020,52.13
07092020,74.44
08092020,73.54
09092020,69.66
10092020,80.93
11092020,66.83
14092020,68.13
15092020,74.38
16092020,46.27
17092020,61.76
18092020,54.96
21092020,74.47
22092020,76.49
23092020,71.07
24092020,60.72
25092020,82.01
28092020,58.02
29092020,86.46
30092020,71.65
01102020,58.33
05102020,96.95
06102020,65.9
07102020,65.24
08102020,27.75
09102020,77.06
12102020,63.75
13102020,98.54
14102020,38.9
15102020,55.28
16102020,69.54
19102020,57.01
20102020,69.75
21102020,60.16
22102020,62.6
23102020,72.84
26102020,46.23
27102020,86.05
28102020,73.14
29102020,66.44
30102020,73.22
02112020,80.23
03112020,61.7
04112020,48.93
05112020,63.46
06112020,71.81
09112020,63.04
10112020,62.38
11112020,62.01
12112020,61.13
13112020,71.78
16112020,82.21
17112020,49.81
18112020,80.28
19112020,59.92
20112020,40.01
23112020,65.97
24112020,70.05
25112020,74.79
26112020,68.82
27112020,73.93
30112020,73.93
01122020,53.56
02122020,48.5
03122020,53.96
04122020,67.02
07122020,44.51
08122020,49.9
09122020,77.75
10122020,69.39
11122020,72.85
14122020,60.85
15122020,70.51
16122020,56.74
17122020,45.93
18122020,58.28
21122020,65.57
22122020,72.22
23122020,59.73
24122020,55.3
25122020,55.3
28122020,46.51
29122020,53.68
30122020,49.67
31122020,53.19
01012021,48.19
04012021,37.99
05012021,56.24
06012021,75.82
07012021,63.18
08012021,54.29
11012021,73.51
12012021,55.67
13012021,58.34
14012021,65.75
15012021,24.78
18012021,52.14
19012021,68.63
20012021,36.62
21012021,63.31
22012021,72.4
25012021,69.31
27012021,54.77
28012021,48.12
29012021,32.24
01022021,67.88
02022021,66.9
03022021,57.32
04022021,51.48
05022021,56.96
08022021,68.1
09022021,85.64
10022021,65.04
11022021,49.82
12022021,76.37
15022021,73.92
16022021,67.12
17022021,63.0
18022021,48.25
19022021,51.95
22022021,78.39
23022021,82.4
24022021,58.12
25022021,72.64
26022021,78.59
01032021,71.15
02032021,53.48
03032021,48.12
04032021,56.65
05032021,47.42
08032021,55.59
09032021,33.88
10032021,40.02
11032021,40.02
12032021,63.36
15032021,70.94
16032021,54.3
17032021,67.23
18032021,60.82
19032021,54.38
22032021,60.14
23032021,57.39
24032021,70.18
25032021,56.7
26032021,46.88
29032021,46.88
30032021,66.09
31032021,73.53
01042021,49.6
02042021,49.6
05042021,71.91
06042021,83.4
07042021,74.69
08042021,77.34
09042021,81.69
12042021,85.26
13042021,76.98
14042021,76.98
15042021,65.79
16042021,59.23
19042021,72.54
20042021,77.38
21042021,77.38
22042021,63.53
23042021,82.78
26042021,79.24
27042021,79.13
28042021,59.37
29042021,72.63
30042021,65.74
03052021,55.83
04052021,42.55
05052021,53.38
06052021,76.97
07052021,45.57
10052021,42.87
11052021,41.32
12052021,67.31
13052021,67.31
14052021,65.33
17052021,63.31
18052021,56.07
19052021,58.94
20052021,31.92
21052021,73.75
24052021,33.8
25052021,84.47
26052021,38.69
27052021,58.62
28052021,69.59
31052021,52.24
01062021,57.53
02062021,59.06
03062021,54.86
04062021,60.41
07062021,62.69
08062021,67.91
09062021,43.82
10062021,47.28
11062021,53.32
14062021,51.36
15062021,38.96
16062021,49.74
17062021,39.16
18062021,19.25
21062021,25.95
22062021,34.96
23062021,48.93
24062021,52.04
25062021,29.03
28062021,54.69
29062021,69.94
30062021,49.81
01072021,47.87
02072021,55.47
05072021,48.73
06072021,52.34
07072021,29.88
08072021,50.65
09072021,40.29
12072021,57.54
13072021,68.66
14072021,42.26
15072021,57.68
16072021,45.28
19072021,56.57
20072021,50.46
21072021,50.46
22072021,45.24
23072021,51.94
26072021,62.85
27072021,46.63
28072021,43.19
29072021,41.87
30072021,49.11
02082021,54.26
03082021,49.77
04082021,52.26
05082021,38.6
06082021,61.24
09082021,37.75
10082021,59.89
11082021,44.19
12082021,59.7
13082021,44.96
16082021,53.75
17082021,58.24
18082021,62.58
19082021,62.58
20082021,55.13
23082021,66.51
24082021,37.28
25082021,59.29
26082021,57.17
27082021,70.79
30082021,46.92
31082021,50.57
01092021,46.65
02092021,50.04
03092021,64.23
06092021,47.46
07092021,42.3
08092021,55.4
09092021,49.53
10092021,49.53
13092021,64.78
14092021,57.39
15092021,49.7
16092021,49.61
17092021,66.01
20092021,60.71
21092021,68.09
22092021,45.08
23092021,71.35
24092021,60.04
27092021,41.13
28092021,48.32
29092021,63.85
30092021,64.4
01102021,54.35
04102021,54.56
05102021,53.98
06102021,60.06
07102021,67.36
08102021,64.0
11102021,40.69
12102021,69.59
13102021,67.3
14102021,74.07
15102021,74.07
18102021,71.22
19102021,75.73
20102021,76.06
21102021,85.14
22102021,65.43
25102021,63.28
26102021,47.52
27102021,50.82
28102021,56.81
29102021,80.22
01112021,69.97
02112021,58.11
03112021,57.9
04112021,57.9
05112021,57.75
08112021,57.19
09112021,70.19
10112021,51.17
11112021,69.29
12112021,46.28
15112021,53.24
16112021,49.1
17112021,38.04
18112021,60.93
19112021,60.93
22112021,36.74
23112021,59.84
24112021,60.0
25112021,51.75
26112021,42.64
29112021,49.43
30112021,53.05
01122021,55.25
02122021,58.07
03122021,66.94
06122021,39.25
07122021,81.43
08122021,46.12
09122021,58.08
10122021,58.71
13122021,78.82
14122021,48.26
15122021,67.65
16122021,65.13
17122021,52.6
20122021,48.51
21122021,69.14
22122021,71.44
23122021,51.94
24122021,65.99
27122021,56.22
28122021,61.4
29122021,42.44
30122021,43.1
31122021,67.91
03012022,74.39
04012022,52.23
05012022,43.96
06012022,57.08
07012022,51.85
10012022,62.25
11012022,65.71
12012022,57.56
13012022,65.91
14012022,47.19
17012022,58.82
18012022,56.25
19012022,52.23
20012022,44.51
21012022,54.12
24012022,66.2
25012022,62.6
27012022,61.37
28012022,47.96
31012022,96.75
01022022,54.51
02022022,43.1
03022022,51.51
04022022,48.31
07022022,76.73
08022022,65.23
09022022,54.58
10022022,67.7
11022022,60.11
14022022,75.02
15022022,71.79
16022022,53.55
17022022,69.7
18022022,69.82
21022022,74.65
22022022,78.43
23022022,61.77
24022022,60.74
25022022,63.81
28022022,40.81
01032022,40.81
02032022,49.44
03032022,73.07
04032022,54.26
07032022,70.72
08032022,69.95
09032022,65.03
10032022,75.97
11032022,38.18
14032022,44.7
15032022,44.38
16032022,35.03
17032022,68.02
18032022,68.02
21032022,49.28
22032022,49.22
23032022,56.13
24032022,43.99
25032022,56.26
28032022,55.54
29032022,54.55
30032022,65.05
31032022,64.86
01042022,56.14
04042022,63.68
05042022,52.31
06042022,53.13
07042022,55.11
08042022,74.7
11042022,74.91
12042022,56.66
13042022,58.17
14042022,58.17
15042022,58.17
18042022,36.2
19042022,37.75
20042022,57.22
21042022,60.45
22042022,67.91
25042022,75.68
26042022,53.62
27042022,56.91
28042022,57.19
29042022,65.44
02052022,69.82
03052022,69.82
04052022,83.3
05052022,55.66
06052022,70.86
09052022,62.37
10052022,64.73
11052022,52.11
12052022,74.82
13052022,58.74
16052022,67.44
17052022,67.43
18052022,72.05
19052022,61.21
20052022,68.44
23052022,62.3
24052022,71.29
25052022,76.48
26052022,75.54
27052022,56.17
30052022,77.2
31052022,52.64
01062022,67.42
02062022,64.6
03062022,69.19
06062022,77.24
07062022,84.58
08062022,58.63
09062022,80.51
10062022,83.82
13062022,85.59
14062022,63.7
15062022,64.41
16062022,56.41
17062022,85.79
20062022,70.57
21062022,51.95
22062022,70.95
23062022,66.32
24062022,60.19
27062022,44.29
28062022,51.31
29062022,31.33
30062022,68.9
01072022,58.47
04072022,57.29
05072022,24.12
06072022,47.28
07072022,65.24
08072022,62.85
11072022,58.11
12072022,59.73
13072022,38.92
14072022,57.0
15072022,61.41
18072022,38.41
19072022,48.09
20072022,73.5
21072022,79.27
22072022,70.94
25072022,67.74
26072022,70.34
27072022,67.72
28072022,66.46
29072022,81.47
01082022,62.18
02082022,81.88
03082022,65.04
04082022,59.59
05082022,50.29
10082022,37.56
11082022,68.76
12082022,70.0
16082022,76.19
17082022,68.52
18082022,73.59
19082022,67.91
22082022,63.81
23082022,75.56
24082022,42.36
25082022,84.35
26082022,70.41
29082022,45.63
30082022,79.56
31082022,79.56
01092022,61.54
02092022,66.71
05092022,65.95
06092022,41.78
07092022,75.01
08092022,60.09
09092022,67.96
12092022,81.18
13092022,76.31
14092022,64.74
15092022,57.02
16092022,78.45
19092022,67.52
20092022,75.31
21092022,77.98
22092022,84.45
23092022,68.28
26092022,84.15
27092022,83.82
28092022,48.86
29092022,75.69
30092022,61.25
03102022,70.64
04102022,72.36
05102022,72.36
06102022,81.37
07102022,91.77
10102022,54.02
11102022,93.75
12102022,42.65
13102022,61.3
14102022,45.77
17102022,84.74
18102022,73.37
19102022,60.83
20102022,76.39
21102022,63.3
24102022,81.73
25102022,59.19
26102022,59.19
27102022,53.29
28102022,85.19
31102022,53.04
01112022,69.88
02112022,84.97
03112022,59.77
04112022,88.95
07112022,78.84
08112022,78.84
09112022,75.84
10112022,79.17
11112022,80.19
14112022,49.55
15112022,64.07
16112022,77.35
17112022,59.34
18112022,86.14
21112022,66.73
22112022,62.11
23112022,65.38
24112022,84.79
25112022,80.76
28112022,75.8
29112022,58.66
30112022,61.26
01122022,77.25
02122022,81.71
05122022,81.71
06122022,71.23
07122022,71.2
08122022,70.61
09122022,77.05
12122022,79.81
13122022,45.95
14122022,57.58
15122022,62.69
16122022,86.67
19122022,49.49
20122022,35.05
21122022,59.29
22122022,78.76
23122022,87.98
26122022,52.76
27122022,82.06
28122022,41.98
29122022,28.58
30122022,60.78
02012023,61.45
03012023,77.17
04012023,81.2
05012023,47.93
06012023,79.21
09012023,81.86
10012023,81.85
11012023,60.83
12012023,80.22
13012023,73.75
16012023,50.75
17012023,88.25
18012023,77.16
19012023,66.61
20012023,62.88
23012023,67.23
24012023,91.26
25012023,80.9
27012023,62.66
30012023,39.3
31012023,43.56
01022023,82.14
02022023,68.89
03022023,79.54
06022023,71.12
07022023,68.58
08022023,66.05
09022023,79.45
10022023,58.24
13022023,63.68
14022023,87.37
15022023,56.45
16022023,70.79
17022023,88.09
20022023,58.1
21022023,83.19
22022023,80.14
23022023,79.57
24022023,75.78
27022023,59.17
28022023,61.5
01032023,55.42
02032023,70.22
03032023,40.08
06032023,92.74
07032023,92.74
08032023,81.25
09032023,57.13
10032023,86.14
13032023,84.04
14032023,65.17
15032023,72.99
16032023,93.43
17032023,80.64
20032023,85.86
21032023,60.47
22032023,76.16
23032023,67.31
24032023,82.87
27032023,89.98
28032023,77.7
29032023,79.46
30032023,79.46
31032023,80.76
03042023,64.79
04042023,64.79
05042023,76.11
06042023,56.83
07042023,56.83
10042023,69.87
11042023,88.7
12042023,84.92
13042023,77.92
14042023,77.92
17042023,91.83
18042023,75.61
19042023,68.08
20042023,90.04
21042023,54.11
24042023,46.57
25042023,71.03
26042023,67.16
27042023,56.29
28042023,71.08
01052023,71.08
02052023,60.27
03052023,63.19
04052023,44.39
05052023,81.24
08052023,50.36
09052023,73.82
10052023,67.15
11052023,59.45
12052023,82.79
15052023,51.38
16052023,77.52
17052023,65.78
18052023,60.58
19052023,72.1
22052023,64.56
23052023,49.73
24052023,71.28
25052023,66.3
26052023,66.85
29052023,44.09
30052023,71.46
31052023,69.96
01062023,40.27
02062023,69.78
05062023,52.75
06062023,90.54
07062023,57.52
08062023,76.83
09062023,64.49
12062023,69.16
13062023,77.96
14062023,67.2
15062023,65.51
16062023,82.55
19062023,70.1
20062023,70.84
21062023,87.74
22062023,67.92
23062023,67.14
26062023,72.34
27062023,65.2
28062023,64.12
29062023,64.12
30062023,37.89
03072023,65.78
04072023,77.13
05072023,76.85
06072023,77.14
07072023,71.56
10072023,82.28
11072023,84.16
12072023,63.34
13072023,70.98
14072023,66.52
17072023,84.8
18072023,77.01
19072023,86.68
20072023,54.62
21072023,51.28
24072023,87.36
25072023,71.95
26072023,87.81
27072023,85.6
28072023,78.63
31072023,73.34
01082023,72.17
02082023,81.6
03082023,60.26
04082023,75.37
07082023,95.14
08082023,72.65
09082023,72.02
10082023,89.85
11082023,47.66
14082023,62.53
16082023,52.51
17082023,55.98
18082023,64.11
21082023,70.36
22082023,67.13
23082023,42.74
24082023,48.63
25082023,53.85
28082023,62.04
29082023,69.29
30082023,52.13
31082023,67.78
01092023,76.9
04092023,62.43
05092023,32.92
06092023,44.25
07092023,62.58
08092023,49.47
11092023,68.02
12092023,62.94
13092023,65.57
14092023,55.73
15092023,74.67
18092023,72.48
19092023,72.48
20092023,62.9
21092023,62.91
22092023,61.86
25092023,74.79
26092023,62.53
27092023,58.51
28092023,74.28
29092023,77.2
03102023,65.36
04102023,82.2
05102023,75.37
06102023,72.8
09102023,68.15
10102023,68.11
11102023,52.57
12102023,66.53
13102023,71.46
16102023,66.91
17102023,74.96
18102023,73.3
19102023,53.04
20102023,49.33
23102023,56.11
24102023,56.11
25102023,8.75
26102023,32.85
27102023,11.23
30102023,12.77
31102023,32.22
01112023,15.56
02112023,7.81
03112023,14.1
06112023,9.22
07112023,24.17
08112023,10.16
09112023,8.55
10112023,20.85
13112023,11.81
14112023,11.81
15112023,13.44
16112023,5.76
17112023,7.67
20112023,35.73
21112023,62.16
22112023,52.29
23112023,49.17
24112023,25.03
27112023,25.03
28112023,22.01
29112023,10.51
30112023,28.57
01122023,14.71
04122023,55.57
05122023,51.69
06122023,45.92
07122023,39.56
08122023,61.97
11122023,59.55
12122023,58.64
13122023,60.4
14122023,67.68
15122023,71.03
18122023,39.61
19122023,57.94
20122023,53.39
21122023,52.43
22122023,59.93
25122023,59.93
26122023,47.27
27122023,66.02
28122023,58.99
29122023,51.15
01012024,50.24
02012024,44.26
03012024,52.83
04012024,62.59
05012024,61.05
08012024,51.9
09012024,47.36
10012024,63.86
11012024,59.25
12012024,56.94
15012024,47.48
16012024,65.15
17012024,45.08
18012024,44.59
19012024,35.99
22012024,57.48
23012024,62.38
24012024,55.22
25012024,42.0
29012024,52.25
30012024,28.22
31012024,48.29
01022024,37.78
02022024,54.32
05022024,61.66
06022024,46.35
07022024,35.2
08022024,48.69
09022024,41.56
12022024,48.36
13022024,40.6
14022024,42.69
15022024,53.85
16022024,55.84
19022024,50.89
20022024,52.33
21022024,37.22
22022024,34.15
23022024,50.84
26022024,55.38
27022024,54.55
28022024,55.52
29022024,57.31
01032024,53.81
04032024,43.97
05032024,47.2
06032024,66.07
07032024,64.55
08032024,64.55
11032024,62.74
12032024,65.2
13032024,61.34
14032024,52.89
15032024,46.18
18032024,54.05
19032024,72.15
20032024,59.4
21032024,28.31
22032024,62.16
25032024,62.16
26032024,70.28
27032024,79.58
28032024,61.0
29032024,61.0
01042024,49.63
02042024,53.4
03042024,49.82
04042024,36.23
05042024,45.3
08042024,59.4
09042024,54.62
10042024,59.12
11042024,59.12
12042024,65.08
15042024,61.35
16042024,78.66
17042024,78.66
18042024,65.17
19042024,65.19
22042024,79.59
23042024,82.88
24042024,94.01
25042024,79.41
26042024,86.5
29042024,85.89
30042024,65.37
01052024,65.37
02052024,52.35
03052024,82.41
06052024,71.82
07052024,79.47
08052024,43.73
09052024,75.1
10052024,68.83
13052024,61.24
14052024,49.92
15052024,59.95
16052024,72.05
17052024,43.03
20052024,67.86
21052024,59.3
22052024,67.03
23052024,80.14
24052024,72.62
27052024,80.77
28052024,82.13
29052024,64.88
30052024,69.39
31052024,74.72
03062024,75.73
04062024,86.91
05062024,58.73
06062024,69.17
07062024,62.31
10062024,74.64
11062024,58.83
12062024,66.89
13062024,65.31
14062024,57.34
17062024,57.34
18062024,62.76
19062024,70.11
20062024,54.25
21062024,74.27
24062024,51.38
25062024,66.69
26062024,50.53
27062024,76.67
28062024,78.65
01072024,72.85
02072024,46.69
03072024,69.42
04072024,62.8
05072024,68.76
08072024,73.56
09072024,60.3
10072024,52.73
11072024,58.83
12072024,56.5
15072024,79.51
16072024,55.0
17072024,55.0
18072024,45.12
19072024,70.34
22072024,66.21
23072024,44.43
24072024,69.16
25072024,67.03
26072024,61.56
29072024,53.49
30072024,60.58
31072024,70.22
01082024,74.88
02082024,64.01
05082024,74.36
06082024,65.8
07082024,40.46
08082024,54.83
09082024,44.91
12082024,66.97
13082024,69.39
14082024,72.94
16082024,48.92
19082024,72.88
20082024,29.22
21082024,64.22
22082024,57.66
23082024,42.78
26082024,49.9
27082024,71.71
28082024,61.95
29082024,70.98
30082024,49.41
02092024,39.39
03092024,63.79
04092024,56.24
05092024,51.64
06092024,81.85
09092024,62.41
10092024,71.55
11092024,68.16
12092024,59.73
13092024,57.04
16092024,63.92
17092024,58.03
18092024,66.76
19092024,62.37
20092024,55.14
23092024,72.81
24092024,57.45
25092024,81.95
26092024,34.76
27092024,57.67
30092024,36.56
01102024,51.12
03102024,58.43
04102024,58.45
07102024,68.14
08102024,49.58
09102024,53.16
10102024,79.04
11102024,66.43
14102024,77.79
15102024,62.87
16102024,48.42
17102024,58.84
18102024,47.55
21102024,52.75
22102024,50.33
23102024,57.04
24102024,49.0
25102024,67.0
28102024,70.08
29102024,52.28
30102024,47.16
31102024,58.2
01112024,80.39
04112024,43.49
05112024,48.03
06112024,48.83
07112024,49.91
08112024,74.07
11112024,62.29
12112024,53.9
13112024,54.64
14112024,59.34
18112024,68.83
19112024,67.06
20112024,67.06
21112024,53.65
22112024,61.5
25112024,48.37
26112024,51.43
27112024,54.74
28112024,58.63
29112024,47.06
02122024,32.7
03122024,59.25
04122024,54.65
05122024,59.07
06122024,27.71
09122024,40.43
10122024,65.29
11122024,78.0
12122024,29.51
13122024,45.16
16122024,32.17
17122024,53.48
18122024,45.5
19122024,34.27
20122024,70.14
23122024,71.15
24122024,64.33
25122024,64.33
26122024,64.11
27122024,53.36
30122024,75.52
31122024,54.91
01012025,40.15
02012025,52.2
03012025,55.69
06012025,85.57
07012025,47.3
08012025,73.87
09012025,72.19
10012025,60.75
13012025,34.24
14012025,66.71
15012025,58.89
16012025,49.63
17012025,48.57
20012025,60.47
21012025,50.78
22012025,63.16
23012025,36.68
24012025,58.35
27012025,93.0
28012025,66.66
29012025,64.39
30012025,62.59
31012025,73.28
03022025,74.12
04022025,71.22
05022025,59.51
06022025,79.15
07022025,69.97
10022025,71.91
11022025,79.76
12022025,58.17
13022025,62.54
14022025,78.78
17022025,68.84
18022025,81.34
19022025,68.0
20022025,39.49
21022025,64.74
24022025,25.35
15092025,35.65
16092025,55.16
17092025,62.15
18092025,52.98
19092025,59.8
22092025,52.66
23092025,94.02
24092025,65.52
25092025,48.71
26092025,41.36
29092025,49.4
30092025,42.72
01102025,28.5
03102025,48.14
06102025,64.76
07102025,55.16
08102025,70.49
09102025,46.29
10102025,73.58
13102025,82.67
14102025,85.14
15102025,62.6
16102025,40.56
17102025,68.7
20102025,66.14
21102025,80.23
22102025,80.23
23102025,70.85
24102025,72.16
27102025,83.32
28102025,68.93
29102025,60.44
30102025,54.29
31102025,74.6
03112025,85.74
04112025,70.26
05112025,70.26
06112025,63.94
07112025,58.48
10112025,69.52
11112025,57.35
12112025,70.59
13112025,84.27
14112025,87.4
17112025,63.5
18112025,48.52
19112025,82.15
20112025,81.37
21112025,72.3
24112025,73.5
25112025,70.73
26112025,87.61
27112025,62.9
28112025,62.65
01122025,66.44
02122025,74.55
03122025,91.54
04122025,90.12
05122025,56.83
08122025,88.54
09122025,88.24
10122025,65.44
11122025,76.32
12122025,73.0
15122025,62.25
16122025,53.17
17122025,54.83
18122025,40.0
19122025,50.9
22122025,67.13
23122025,49.95
24122025,58.89
25122025,58.89
26122025,66.73
29122025,78.35
30122025,70.37
31122025,47.28
01012026,63.11
02012026,66.26
05012026,67.35
06012026,66.46
07012026,87.24
08012026,89.11
09012026,90.77
12012026,76.01
13012026,83.36
14012026,88.04
15012026,88.04
16012026,79.71
19012026,51.28
20012026,44.61
21012026,60.19
22012026,58.84
23012026,75.26
27012026,93.24
28012026,82.24
29012026,95.49
30012026,94.44
02022026,94.37
03022026,91.69
04022026,98.03
05022026,96.43
06022026,68.32
