Date,DelPerc,PREV_CLOSE,OPEN_PRICE,HIGH_PRICE,LOW_PRICE,CLOSE_PRICE,Change_Percentage
01102019,77.08,16.9,17.05,17.45,15.65,16.4,-2.96
03102019,66.71,16.4,15.4,16.25,15.4,15.65,-4.57
04102019,53.08,15.65,15.65,16.0,15.2,15.35,-1.92
07102019,81.11,15.35,15.3,15.75,14.85,15.3,-0.33
08102019,81.11,15.35,15.3,15.75,14.85,15.3,-0.33
09102019,88.44,15.3,15.4,15.4,14.7,14.85,-2.94
10102019,75.46,14.85,14.2,15.1,14.2,14.35,-3.37
11102019,40.25,14.35,14.35,15.05,14.25,14.65,2.09
14102019,60.61,14.65,14.95,15.2,14.2,14.45,-1.37
15102019,88.46,14.45,14.85,16.8,14.5,15.8,9.34
16102019,63.96,15.8,15.45,17.45,15.45,17.2,8.86
17102019,68.81,17.2,17.0,17.2,15.75,17.0,-1.16
18102019,76.12,17.0,16.9,17.4,16.25,16.95,-0.29
21102019,76.12,17.0,16.9,17.4,16.25,16.95,-0.29
22102019,99.59,16.95,16.9,17.0,16.2,16.8,-0.88
23102019,74.89,16.8,16.75,17.05,16.4,16.85,0.3
24102019,47.85,16.85,16.65,17.0,16.45,17.0,0.89
25102019,73.04,17.0,16.95,16.95,15.8,16.3,-4.12
28102019,90.56,16.3,16.75,17.3,15.9,17.1,4.91
29102019,84.08,17.1,16.9,17.0,16.15,16.35,-4.39
30102019,81.2,16.35,16.2,16.6,15.5,15.6,-4.59
31102019,26.33,15.6,16.45,17.95,15.5,16.4,5.13
01112019,80.4,16.4,16.1,17.6,15.8,16.1,-1.83
04112019,66.91,16.1,16.05,16.8,15.1,15.55,-3.42
05112019,80.27,15.55,15.8,16.0,15.3,15.85,1.93
06112019,84.21,15.85,15.65,16.25,15.5,15.5,-2.21
07112019,62.45,15.5,15.45,15.95,15.45,15.65,0.97
08112019,79.22,15.65,15.85,15.85,15.2,15.5,-0.96
11112019,70.58,15.5,15.65,15.75,15.15,15.35,-0.97
12112019,70.58,15.5,15.65,15.75,15.15,15.35,-0.97
13112019,70.55,15.35,15.65,15.65,15.05,15.1,-1.63
14112019,58.28,15.1,14.95,15.65,14.8,15.0,-0.66
15112019,74.73,15.0,15.2,15.2,14.95,15.05,0.33
18112019,84.28,15.05,15.0,15.05,14.55,14.7,-2.33
19112019,69.5,14.7,14.8,15.1,14.55,14.8,0.68
20112019,85.04,14.8,14.8,15.0,14.3,14.9,0.68
21112019,95.1,14.9,14.9,14.9,14.55,14.65,-1.68
22112019,67.31,14.65,14.65,14.9,14.0,14.2,-3.07
25112019,52.47,14.2,13.95,14.8,13.95,14.25,0.35
26112019,65.97,14.25,14.25,14.7,14.25,14.4,1.05
27112019,86.26,14.4,14.8,14.8,14.15,14.2,-1.39
28112019,97.26,14.2,14.3,14.65,14.25,14.3,0.7
29112019,67.62,14.3,14.5,14.85,14.15,14.3,0.0
02122019,71.4,14.3,14.25,15.25,14.1,14.4,0.7
03122019,77.92,14.4,14.5,14.5,14.05,14.1,-2.08
04122019,46.05,14.1,14.1,14.45,14.0,14.25,1.06
05122019,87.68,14.25,14.25,14.4,14.1,14.2,-0.35
06122019,95.65,14.2,14.15,14.65,13.9,13.95,-1.76
09122019,57.8,13.95,14.2,14.4,13.85,13.95,0.0
10122019,96.75,13.95,13.8,14.1,13.45,13.5,-3.23
11122019,87.64,13.5,13.35,13.4,13.1,13.15,-2.59
12122019,88.38,13.15,13.5,13.75,13.2,13.3,1.14
13122019,63.31,13.3,13.95,13.95,13.25,13.45,1.13
16122019,64.35,13.45,13.35,13.65,13.15,13.4,-0.37
17122019,51.55,13.4,13.6,15.1,13.6,14.2,5.97
18122019,61.82,14.2,14.9,14.9,13.55,14.0,-1.41
19122019,79.46,14.0,13.95,14.25,13.55,14.0,0.0
20122019,66.02,14.0,14.0,14.45,13.6,13.65,-2.5
23122019,80.47,13.65,14.5,14.5,13.3,13.6,-0.37
24122019,82.47,13.6,14.0,14.8,12.65,13.2,-2.94
25122019,82.47,13.6,14.0,14.8,12.65,13.2,-2.94
26122019,88.67,13.2,13.15,13.2,12.9,13.15,-0.38
27122019,49.46,13.15,13.1,14.35,13.05,13.95,6.08
30122019,51.89,13.95,14.1,14.2,13.35,13.85,-0.72
31122019,65.68,13.85,13.8,14.6,13.7,14.35,3.61
01012020,81.08,14.35,14.1,14.6,13.6,13.8,-3.83
02012020,79.68,13.8,14.0,15.4,14.0,14.95,8.33
03012020,91.69,14.95,14.95,14.95,14.45,14.7,-1.67
06012020,99.33,14.7,14.7,14.7,14.3,14.6,-0.68
07012020,95.65,14.6,14.7,14.8,14.5,14.55,-0.34
08012020,73.34,14.55,14.55,15.3,14.1,14.9,2.41
09012020,87.55,14.9,15.25,15.25,14.4,14.5,-2.68
10012020,55.26,14.5,14.4,15.6,14.4,14.7,1.38
13012020,93.27,14.7,14.6,15.5,14.6,14.75,0.34
14012020,58.54,14.75,14.8,15.65,14.75,15.2,3.05
15012020,34.82,15.2,15.0,16.4,15.0,15.3,0.66
16012020,74.6,15.3,15.25,15.85,15.15,15.35,0.33
17012020,60.29,15.35,15.3,17.2,15.3,16.3,6.19
20012020,82.91,16.3,16.3,16.35,15.35,15.55,-4.6
21012020,60.05,15.55,15.35,15.95,15.3,15.8,1.61
22012020,74.1,15.8,16.35,16.35,15.6,15.85,0.32
23012020,62.78,15.85,15.8,16.05,15.45,15.55,-1.89
24012020,41.34,15.55,15.3,16.2,15.25,16.0,2.89
27012020,74.68,16.0,15.9,15.9,15.35,15.45,-3.44
28012020,51.91,15.45,15.45,15.6,15.0,15.5,0.32
29012020,82.75,15.5,15.1,15.9,14.7,14.95,-3.55
30012020,55.29,14.95,14.85,15.5,14.3,14.55,-2.68
31012020,72.14,14.55,14.55,14.9,14.1,14.35,-1.37
03022020,86.44,13.75,13.65,14.9,13.3,13.6,-1.09
04022020,79.79,13.6,13.55,14.9,13.55,14.65,7.72
05022020,74.44,14.65,14.9,14.9,14.1,14.45,-1.37
06022020,66.68,14.45,14.35,15.25,14.35,14.65,1.38
07022020,98.33,14.65,14.55,14.95,14.5,14.55,-0.68
10022020,85.47,14.55,14.45,15.85,14.45,14.5,-0.34
11022020,80.82,14.5,14.45,14.95,14.0,14.15,-2.41
12022020,74.21,14.15,14.2,14.4,13.55,13.65,-3.53
13022020,60.33,13.65,13.45,14.25,13.45,13.65,0.0
14022020,89.33,13.65,13.7,14.25,13.25,13.45,-1.47
17022020,98.05,13.45,13.55,14.0,13.5,13.6,1.12
18022020,95.43,13.6,14.0,14.0,13.3,13.75,1.1
19022020,95.44,13.75,13.4,14.25,13.35,13.9,1.09
20022020,68.63,13.9,14.3,15.5,14.3,14.45,3.96
21022020,68.63,13.9,14.3,15.5,14.3,14.45,3.96
24022020,85.9,14.45,14.1,14.8,13.6,14.0,-3.11
25022020,91.85,14.0,13.95,14.2,13.3,13.4,-4.29
26022020,81.67,13.4,13.3,14.25,13.3,13.95,4.1
27022020,59.72,13.95,13.9,14.8,13.3,14.25,2.15
28022020,72.62,14.25,14.0,14.05,12.9,13.65,-4.21
02032020,74.51,13.65,13.5,13.7,12.3,12.7,-6.96
03032020,89.93,12.7,12.8,13.25,12.55,12.7,0.0
04032020,95.89,12.7,12.1,13.25,12.1,12.5,-1.57
05032020,64.15,12.5,12.5,13.0,12.45,12.55,0.4
06032020,87.03,12.55,12.5,13.2,11.75,13.05,3.98
09032020,86.35,13.05,13.05,13.05,12.25,12.7,-2.68
10032020,86.35,13.05,13.05,13.05,12.25,12.7,-2.68
11032020,99.25,12.7,12.2,12.95,12.1,12.75,0.39
12032020,99.16,12.75,12.15,13.5,11.5,12.1,-5.1
13032020,78.57,12.1,10.65,13.9,10.0,11.55,-4.55
16032020,63.44,11.55,12.3,12.85,10.55,12.05,4.33
17032020,91.28,12.05,10.8,12.45,10.8,11.5,-4.56
18032020,77.78,11.5,11.55,11.65,11.0,11.1,-3.48
19032020,76.89,11.1,10.95,12.0,10.3,11.9,7.21
20032020,92.87,11.9,12.05,12.8,11.4,12.2,2.52
23032020,92.53,12.2,11.7,11.7,9.8,10.25,-15.98
24032020,73.34,10.25,10.2,11.35,10.0,10.2,-0.49
25032020,90.93,10.2,10.25,10.9,9.8,10.2,0.0
26032020,78.7,10.2,10.45,11.7,10.3,11.5,12.75
27032020,59.36,11.5,11.65,11.9,10.2,11.15,-3.04
30032020,58.12,11.15,10.9,10.95,10.25,10.55,-5.38
31032020,83.99,10.55,10.6,11.9,10.45,11.5,9.0
01042020,99.83,11.5,11.45,11.6,11.35,11.5,0.0
02042020,99.83,11.5,11.45,11.6,11.35,11.5,0.0
03042020,82.32,11.5,11.05,11.9,10.5,10.95,-4.78
06042020,82.32,11.5,11.05,11.9,10.5,10.95,-4.78
07042020,64.14,10.95,11.25,12.8,11.15,12.65,15.53
08042020,61.56,12.65,12.7,15.15,12.7,14.95,18.18
09042020,62.53,14.95,16.0,16.45,13.75,14.45,-3.34
10042020,62.53,14.95,16.0,16.45,13.75,14.45,-3.34
13042020,67.29,14.45,15.5,15.5,13.0,13.7,-5.19
15042020,91.59,13.7,13.65,13.75,13.4,13.45,-1.82
16042020,69.74,13.45,13.5,13.75,12.6,13.65,1.49
17042020,81.08,13.65,13.75,14.0,13.3,13.7,0.37
20042020,80.92,13.7,13.95,14.05,13.05,13.3,-2.92
21042020,41.77,13.3,13.2,13.6,12.75,12.95,-2.63
22042020,70.14,12.95,12.75,12.75,12.15,12.5,-3.47
23042020,79.21,12.5,12.5,13.35,12.5,13.0,4.0
24042020,74.74,13.0,12.7,13.7,12.35,12.65,-2.69
27042020,84.24,12.65,12.35,13.2,12.35,12.6,-0.4
28042020,41.82,12.6,12.85,13.0,12.45,12.65,0.4
29042020,62.72,12.65,12.5,12.85,12.5,12.55,-0.79
30042020,84.59,12.55,12.8,12.8,12.45,12.7,1.2
01052020,84.59,12.55,12.8,12.8,12.45,12.7,1.2
04052020,71.21,12.7,12.5,12.95,12.25,12.9,1.57
05052020,84.8,12.9,12.8,12.85,12.35,12.45,-3.49
06052020,83.51,12.45,12.9,12.9,12.5,12.5,0.4
07052020,53.36,12.5,12.5,13.4,12.2,12.45,-0.4
08052020,87.59,12.45,12.3,12.9,11.95,12.4,-0.4
11052020,97.1,12.4,12.35,12.8,12.05,12.45,0.4
12052020,56.55,12.45,12.0,12.4,11.8,12.2,-2.01
13052020,57.98,12.2,12.65,12.65,12.1,12.15,-0.41
14052020,99.25,12.15,12.0,12.4,12.0,12.15,0.0
15052020,86.69,12.15,12.6,12.6,11.7,12.0,-1.23
18052020,87.4,12.0,11.9,12.25,11.6,12.05,0.42
19052020,94.85,12.05,12.0,12.2,11.6,11.65,-3.32
20052020,61.82,11.65,11.6,12.1,11.0,11.7,0.43
21052020,98.37,11.7,11.7,12.0,11.6,11.95,2.14
22052020,76.2,11.95,11.9,12.4,11.4,11.9,-0.42
25052020,76.2,11.95,11.9,12.4,11.4,11.9,-0.42
26052020,71.3,11.9,12.4,12.4,11.65,12.15,2.1
27052020,97.54,12.15,12.2,12.35,11.7,12.35,1.65
28052020,76.74,12.35,12.65,12.65,11.75,11.9,-3.64
29052020,58.41,11.9,12.15,12.65,10.35,11.65,-2.1
01062020,80.01,11.65,11.3,12.25,11.3,12.1,3.86
02062020,81.37,12.1,12.0,12.5,11.85,12.1,0.0
03062020,74.81,12.1,12.2,12.5,11.75,11.8,-2.48
04062020,70.94,11.8,11.8,12.0,11.75,11.95,1.27
05062020,87.51,11.95,11.9,12.3,11.85,12.25,2.51
08062020,78.98,12.25,12.25,12.8,11.8,12.0,-2.04
09062020,79.8,12.0,12.1,12.5,11.9,12.0,0.0
10062020,89.96,12.0,11.7,12.6,11.7,11.9,-0.83
11062020,72.14,11.9,12.0,12.3,11.85,12.05,1.26
12062020,72.05,12.05,11.95,12.2,11.65,12.1,0.41
15062020,81.64,12.1,12.5,12.5,11.85,12.15,0.41
16062020,62.84,12.15,12.0,12.35,11.85,12.0,-1.23
17062020,66.58,12.0,12.0,12.25,11.75,12.1,0.83
18062020,69.01,12.1,12.3,12.75,11.75,12.65,4.55
19062020,46.44,12.65,12.75,14.85,12.6,14.0,10.67
22062020,64.62,14.0,14.15,15.25,13.9,14.25,1.79
23062020,82.76,14.25,14.3,15.2,14.05,14.65,2.81
24062020,61.93,14.65,14.65,16.45,14.4,15.9,8.53
25062020,55.48,15.9,15.8,16.7,15.2,15.45,-2.83
26062020,71.14,15.45,15.4,16.35,14.8,14.95,-3.24
29062020,69.77,14.95,15.0,16.4,14.55,16.15,8.03
30062020,50.73,16.15,16.8,17.5,15.7,16.1,-0.31
01072020,67.06,16.1,16.1,16.75,15.3,16.0,-0.62
02072020,81.67,16.0,16.0,16.8,16.0,16.15,0.94
03072020,79.46,16.15,16.15,16.8,15.4,15.5,-4.02
06072020,73.9,15.5,15.5,16.0,15.25,15.6,0.65
07072020,54.9,15.6,15.95,15.95,14.85,15.4,-1.28
08072020,95.96,15.4,15.4,15.85,14.9,15.1,-1.95
09072020,43.57,15.1,15.75,16.2,15.05,15.2,0.66
10072020,54.02,15.2,15.25,15.6,14.55,14.95,-1.64
13072020,75.49,14.95,15.45,15.45,15.0,15.05,0.67
14072020,82.49,15.05,15.3,15.3,14.65,14.8,-1.66
15072020,76.36,14.8,15.25,15.4,14.6,14.85,0.34
16072020,40.26,14.85,14.85,15.1,13.8,14.2,-4.38
17072020,66.08,14.2,14.45,14.7,14.2,14.35,1.06
20072020,68.98,14.35,14.6,14.9,14.5,14.55,1.39
21072020,44.28,14.55,14.35,15.1,14.2,14.25,-2.06
22072020,79.0,14.25,14.85,14.85,14.15,14.45,1.4
23072020,49.72,14.45,14.45,17.3,14.35,17.25,19.38
24072020,61.21,17.25,16.75,16.85,15.65,16.1,-6.67
27072020,52.7,16.1,16.4,16.9,15.85,16.1,0.0
28072020,50.06,16.1,16.65,16.65,15.8,15.9,-1.24
29072020,51.83,15.9,15.8,17.3,15.5,16.45,3.46
30072020,46.53,16.45,16.95,17.0,15.7,16.0,-2.74
31072020,68.41,16.0,16.25,16.95,16.0,16.6,3.75
03082020,37.21,16.6,16.6,16.6,15.6,16.0,-3.61
04082020,59.13,16.0,15.95,16.7,15.85,16.15,0.94
05082020,57.45,16.15,16.25,16.55,16.05,16.15,0.0
06082020,65.67,16.15,16.0,16.55,16.0,16.15,0.0
07082020,62.83,16.15,16.15,16.25,15.85,16.1,-0.31
10082020,57.1,16.1,16.5,16.5,15.75,15.9,-1.24
11082020,59.74,15.9,16.1,16.1,15.6,15.75,-0.94
12082020,64.6,15.75,15.75,16.0,15.65,15.9,0.95
13082020,61.32,15.9,16.0,16.1,15.65,15.75,-0.94
14082020,46.21,15.75,15.95,16.95,15.75,15.9,0.95
17082020,34.47,15.9,15.9,16.25,15.5,15.85,-0.31
18082020,41.94,15.85,15.9,16.3,15.6,15.9,0.32
19082020,72.52,15.9,15.9,16.3,15.75,15.85,-0.31
20082020,72.83,15.85,15.9,15.9,15.5,15.55,-1.89
21082020,61.67,15.55,15.8,16.2,15.55,15.6,0.32
24082020,64.0,15.6,15.5,15.9,15.05,15.4,-1.28
25082020,86.84,15.4,15.7,15.7,15.15,15.2,-1.3
26082020,51.75,15.2,15.45,15.5,14.8,15.25,0.33
27082020,83.25,15.25,15.5,15.5,15.1,15.2,-0.33
28082020,50.6,15.2,15.65,15.65,15.15,15.2,0.0
31082020,78.22,15.2,15.45,15.45,14.2,14.45,-4.93
01092020,48.85,14.45,14.0,15.4,13.75,14.65,1.38
02092020,34.69,14.65,15.4,15.4,14.1,14.45,-1.37
03092020,64.9,14.45,14.75,14.75,14.1,14.25,-1.38
04092020,52.13,14.25,14.0,14.9,13.75,13.9,-2.46
07092020,74.44,13.9,13.85,14.15,13.75,13.9,0.0
08092020,73.54,13.9,14.0,14.5,13.7,14.0,0.72
09092020,69.66,14.0,13.85,14.05,13.3,13.95,-0.36
10092020,80.93,13.95,13.85,14.35,13.7,14.1,1.08
11092020,66.83,14.1,14.3,14.3,13.85,13.95,-1.06
14092020,68.13,13.95,13.95,14.25,13.8,13.85,-0.72
15092020,74.38,13.85,13.85,13.95,13.2,13.45,-2.89
16092020,46.27,13.45,13.75,15.95,13.55,14.75,9.67
17092020,61.76,14.75,15.2,15.2,14.0,14.3,-3.05
18092020,54.96,14.3,14.25,15.15,14.1,14.3,0.0
21092020,74.47,14.3,14.15,15.2,13.8,14.1,-1.4
22092020,76.49,14.1,13.95,14.15,13.6,13.95,-1.06
23092020,71.07,13.95,13.65,14.45,13.65,13.85,-0.72
24092020,60.72,13.85,14.65,14.65,13.0,13.55,-2.17
25092020,82.01,13.55,13.75,14.4,13.55,13.95,2.95
28092020,58.02,13.95,14.7,14.7,13.75,13.8,-1.08
29092020,86.46,13.8,14.3,14.35,13.55,13.7,-0.72
30092020,71.65,13.7,13.75,13.85,13.55,13.6,-0.73
01102020,58.33,13.6,13.85,14.0,13.0,13.2,-2.94
05102020,96.95,13.2,13.7,13.7,13.2,13.25,0.38
06102020,65.9,13.25,13.5,13.7,13.2,13.5,1.89
07102020,65.24,13.5,13.5,13.75,13.2,13.3,-1.48
08102020,27.75,13.3,13.45,14.0,13.1,13.3,0.0
09102020,77.06,13.3,13.35,13.6,13.25,13.4,0.75
12102020,63.75,13.4,13.3,13.35,13.2,13.25,-1.12
13102020,98.54,13.25,13.25,13.45,13.1,13.2,-0.38
14102020,38.9,13.2,13.05,13.05,12.35,12.75,-3.41
15102020,55.28,12.75,13.45,13.45,12.75,12.85,0.78
16102020,69.54,12.85,13.25,13.25,12.55,12.9,0.39
19102020,57.01,12.9,12.85,13.45,12.7,12.85,-0.39
20102020,69.75,12.85,13.45,13.5,12.9,13.0,1.17
21102020,60.16,13.0,12.95,13.3,12.65,12.95,-0.38
22102020,62.6,12.95,13.05,13.25,12.7,12.8,-1.16
23102020,72.84,12.8,13.0,13.15,12.9,12.9,0.78
26102020,46.23,12.9,13.1,13.3,12.85,13.0,0.78
27102020,86.05,13.0,12.9,13.2,12.6,12.7,-2.31
28102020,73.14,12.7,12.7,12.9,12.5,12.7,0.0
29102020,66.44,12.7,12.6,12.85,12.5,12.6,-0.79
30102020,73.22,12.6,12.6,12.95,12.4,12.65,0.4
02112020,80.23,12.65,12.75,12.8,12.4,12.6,-0.4
03112020,61.7,12.6,12.55,12.8,12.4,12.4,-1.59
04112020,48.93,12.4,12.45,12.8,12.25,12.4,0.0
05112020,63.46,12.4,12.4,12.7,12.4,12.65,2.02
06112020,71.81,12.65,12.95,13.1,12.5,12.7,0.4
09112020,63.04,12.7,12.8,12.8,12.2,12.3,-3.15
10112020,62.38,12.3,12.25,12.6,12.15,12.5,1.63
11112020,62.01,12.5,12.85,12.85,12.3,12.5,0.0
12112020,61.13,12.5,12.4,12.75,12.4,12.5,0.0
13112020,71.78,12.5,12.65,12.8,12.5,12.6,0.8
16112020,82.21,12.6,13.0,13.0,12.35,12.6,0.0
17112020,49.81,12.6,12.55,12.75,12.4,12.55,-0.4
18112020,80.28,12.55,12.55,13.05,12.5,12.65,0.8
19112020,59.92,12.65,12.65,13.8,12.4,12.8,1.19
20112020,40.01,12.8,13.3,13.8,13.05,13.55,5.86
23112020,65.97,13.55,13.4,14.05,13.1,13.7,1.11
24112020,70.05,13.7,13.5,13.9,13.1,13.3,-2.92
25112020,74.79,13.3,13.35,13.8,13.15,13.2,-0.75
26112020,68.82,13.2,13.6,13.6,13.05,13.2,0.0
27112020,73.93,13.2,13.1,13.65,13.05,13.35,1.14
30112020,73.93,13.2,13.1,13.65,13.05,13.35,1.14
01122020,53.56,13.35,13.15,15.2,13.15,14.25,6.74
02122020,48.5,14.25,14.8,15.3,14.15,14.35,0.7
03122020,53.96,14.35,14.4,15.1,14.4,14.65,2.09
04122020,67.02,14.65,14.85,14.9,13.95,14.05,-4.1
07122020,44.51,14.05,14.8,15.2,14.15,14.75,4.98
08122020,49.9,14.75,14.9,15.0,14.2,14.7,-0.34
09122020,77.75,14.7,14.6,15.0,14.6,14.8,0.68
10122020,69.39,14.8,14.55,14.7,14.0,14.25,-3.72
11122020,72.85,14.25,14.35,14.8,14.25,14.45,1.4
14122020,60.85,14.45,14.85,14.85,14.2,14.5,0.35
15122020,70.51,14.5,14.45,14.7,14.3,14.35,-1.03
16122020,56.74,14.35,14.7,14.7,14.35,14.5,1.05
17122020,45.93,14.5,14.7,16.95,14.35,16.0,10.34
18122020,58.28,16.0,16.2,16.2,15.0,15.65,-2.19
21122020,65.57,15.65,15.95,16.5,15.05,15.25,-2.56
22122020,72.22,15.25,14.8,15.4,14.1,15.25,0.0
23122020,59.73,15.25,15.05,15.55,15.0,15.35,0.66
24122020,55.3,15.35,15.3,16.5,15.05,15.65,1.95
25122020,55.3,15.35,15.3,16.5,15.05,15.65,1.95
28122020,46.51,15.65,15.5,16.05,15.25,15.6,-0.32
29122020,53.68,15.6,15.6,15.9,15.0,15.2,-2.56
30122020,49.67,15.2,15.4,15.9,15.2,15.35,0.99
31122020,53.19,15.35,15.35,17.25,15.35,16.3,6.19
01012021,48.19,16.3,16.75,16.75,16.1,16.2,-0.61
04012021,37.99,16.2,16.7,16.7,16.05,16.2,0.0
05012021,56.24,16.2,16.15,16.35,15.65,15.95,-1.54
06012021,75.82,15.95,15.8,16.1,15.4,15.55,-2.51
07012021,63.18,15.55,15.9,16.1,15.5,15.75,1.29
08012021,54.29,15.75,15.75,16.3,15.5,15.6,-0.95
11012021,73.51,15.6,15.5,15.7,14.8,14.9,-4.49
12012021,55.67,14.9,15.2,15.2,14.8,14.9,0.0
13012021,58.34,14.9,15.4,15.4,14.2,14.7,-1.34
14012021,65.75,14.7,14.7,15.15,14.7,15.1,2.72
15012021,24.78,15.1,15.15,16.7,14.8,15.7,3.97
18012021,52.14,15.7,16.0,16.1,15.1,15.35,-2.23
19012021,68.63,15.35,15.25,15.6,15.15,15.25,-0.65
20012021,36.62,15.25,15.6,16.5,15.6,15.8,3.61
21012021,63.31,15.8,15.95,16.0,15.2,15.3,-3.16
22012021,72.4,15.3,15.2,15.5,14.5,14.65,-4.25
25012021,69.31,14.65,14.75,14.95,14.5,14.8,1.02
27012021,54.77,14.8,14.8,14.9,14.65,14.7,-0.68
28012021,48.12,14.7,14.5,14.8,14.4,14.55,-1.02
29012021,32.24,14.55,14.8,15.1,14.65,14.75,1.37
01022021,67.88,14.75,15.0,15.0,14.5,14.55,-1.36
02022021,66.9,14.55,14.8,14.9,14.5,14.7,1.03
03022021,57.32,14.7,14.85,14.85,14.5,14.55,-1.02
04022021,51.48,14.55,14.7,15.45,14.5,15.1,3.78
05022021,56.96,15.1,15.1,15.3,14.65,14.75,-2.32
08022021,68.1,14.75,14.45,15.0,14.45,14.65,-0.68
09022021,85.64,14.65,14.6,14.8,14.5,14.55,-0.68
10022021,65.04,14.55,14.45,14.7,14.3,14.45,-0.69
11022021,49.82,14.45,14.65,14.75,14.45,14.55,0.69
12022021,76.37,14.55,14.5,14.7,14.3,14.35,-1.37
15022021,73.92,14.35,14.5,14.5,14.3,14.3,-0.35
16022021,67.12,14.3,14.3,14.55,14.15,14.45,1.05
17022021,63.0,14.45,14.7,14.7,14.25,14.35,-0.69
18022021,48.25,14.35,14.35,14.5,14.1,14.2,-1.05
19022021,51.95,14.2,14.2,14.75,14.1,14.2,0.0
22022021,78.39,14.2,14.5,14.5,13.95,14.0,-1.41
23022021,82.4,14.0,14.05,14.2,13.9,13.95,-0.36
24022021,58.12,13.95,14.0,15.4,14.0,14.7,5.38
25022021,72.64,14.7,15.15,15.15,14.35,14.5,-1.36
26022021,78.59,14.5,14.4,14.65,14.2,14.45,-0.34
01032021,71.15,14.45,14.6,14.65,14.3,14.55,0.69
02032021,53.48,14.55,14.65,15.65,14.2,15.25,4.81
03032021,48.12,15.25,15.45,18.3,15.3,16.55,8.52
04032021,56.65,16.55,16.45,16.45,15.8,15.95,-3.63
05032021,47.42,15.95,16.3,17.3,15.8,16.85,5.64
08032021,55.59,16.85,17.4,17.5,16.85,17.0,0.89
09032021,33.88,17.0,17.25,20.4,16.9,18.65,9.71
10032021,40.02,18.65,18.6,19.55,17.65,18.15,-2.68
11032021,40.02,18.65,18.6,19.55,17.65,18.15,-2.68
12032021,63.36,18.15,18.8,19.0,16.85,17.2,-5.23
15032021,70.94,17.2,17.5,17.75,16.45,16.95,-1.45
16032021,54.3,16.95,17.3,17.75,16.5,16.75,-1.18
17032021,67.23,16.75,16.75,17.0,16.3,16.35,-2.39
18032021,60.82,16.35,16.45,16.7,15.55,15.95,-2.45
19032021,54.38,15.95,15.25,16.5,15.1,16.05,0.63
22032021,60.14,16.05,16.05,16.05,15.55,15.8,-1.56
23032021,57.39,15.8,16.3,16.9,15.75,15.95,0.95
24032021,70.18,15.95,15.95,16.2,15.1,15.3,-4.08
25032021,56.7,15.3,15.3,18.0,15.05,16.05,4.9
26032021,46.88,16.05,16.2,16.75,15.45,15.95,-0.62
29032021,46.88,16.05,16.2,16.75,15.45,15.95,-0.62
30032021,66.09,15.95,15.95,17.15,15.95,16.9,5.96
31032021,73.53,16.9,16.9,17.35,16.45,16.65,-1.48
01042021,49.6,16.65,16.65,17.3,16.55,16.8,0.9
02042021,49.6,16.65,16.65,17.3,16.55,16.8,0.9
05042021,71.91,16.8,16.95,16.95,15.65,16.2,-3.57
06042021,83.4,16.2,16.05,16.5,15.95,16.0,-1.23
07042021,74.69,16.0,16.05,16.5,15.85,15.9,-0.62
08042021,77.34,15.9,15.95,16.4,15.8,15.9,0.0
09042021,81.69,15.9,15.8,16.0,15.3,15.55,-2.2
12042021,85.26,15.55,15.4,15.5,14.95,15.05,-3.22
13042021,76.98,15.05,14.7,15.3,14.7,15.05,0.0
14042021,76.98,15.05,14.7,15.3,14.7,15.05,0.0
15042021,65.79,15.05,15.05,15.25,14.7,15.1,0.33
16042021,59.23,15.1,14.5,15.2,14.5,14.8,-1.99
19042021,72.54,14.8,15.0,15.0,13.4,14.15,-4.39
20042021,77.38,14.15,14.75,14.8,14.2,14.3,1.06
21042021,77.38,14.15,14.75,14.8,14.2,14.3,1.06
22042021,63.53,14.3,14.05,14.7,13.9,14.65,2.45
23042021,82.78,14.65,14.4,15.0,14.35,14.8,1.02
26042021,79.24,14.8,15.0,15.0,14.2,14.45,-2.36
27042021,79.13,14.45,14.45,15.15,14.45,15.0,3.81
28042021,59.37,15.0,15.15,15.7,14.85,15.3,2.0
29042021,72.63,15.3,15.25,15.25,14.6,14.8,-3.27
30042021,65.74,14.8,14.95,15.0,14.5,14.6,-1.35
03052021,55.83,14.6,14.6,14.9,14.05,14.75,1.03
04052021,42.55,14.75,14.95,16.9,14.75,15.85,7.46
05052021,53.38,15.85,16.2,16.45,15.75,16.05,1.26
06052021,76.97,16.05,16.1,16.15,15.55,15.65,-2.49
07052021,45.57,15.65,15.5,17.1,15.5,16.65,6.39
10052021,42.87,16.65,16.65,17.5,16.25,16.55,-0.6
11052021,41.32,16.55,15.7,17.2,15.7,16.55,0.0
12052021,67.31,16.55,16.5,17.7,15.75,15.95,-3.63
13052021,67.31,16.55,16.5,17.7,15.75,15.95,-3.63
14052021,65.33,15.95,16.65,16.65,15.9,16.15,1.25
17052021,63.31,16.15,16.55,16.55,16.05,16.2,0.31
18052021,56.07,16.2,16.9,16.9,16.1,16.4,1.23
19052021,58.94,16.4,16.2,16.45,15.75,16.0,-2.44
20052021,31.92,16.0,16.0,17.3,15.95,16.25,1.56
21052021,73.75,16.25,16.5,16.8,16.25,16.55,1.85
24052021,33.8,16.55,16.55,17.25,16.3,16.55,0.0
25052021,84.47,16.55,16.75,16.9,16.6,16.8,1.51
26052021,38.69,16.8,16.95,18.45,16.65,17.65,5.06
27052021,58.62,17.65,17.65,18.25,17.2,17.5,-0.85
28052021,69.59,17.5,17.5,17.75,16.9,17.1,-2.29
31052021,52.24,17.1,18.5,19.5,18.25,18.45,7.89
01062021,57.53,18.45,18.5,18.7,17.55,17.85,-3.25
02062021,59.06,17.85,17.6,19.7,17.6,18.85,5.6
03062021,54.86,18.85,19.0,19.45,18.4,18.75,-0.53
04062021,60.41,18.75,18.5,19.0,18.2,18.35,-2.13
07062021,62.69,18.35,18.35,18.8,18.2,18.25,-0.54
08062021,67.91,18.25,18.3,18.6,18.0,18.3,0.27
09062021,43.82,18.3,18.35,19.6,18.05,18.3,0.0
10062021,47.28,18.3,18.5,19.5,18.25,18.8,2.73
11062021,53.32,18.8,19.0,20.45,18.8,19.95,6.12
14062021,51.36,19.95,20.25,20.25,19.1,19.25,-3.51
15062021,38.96,19.25,19.1,20.95,19.05,20.2,4.94
16062021,49.74,20.2,20.0,20.2,19.55,19.65,-2.72
17062021,39.16,19.65,19.25,20.1,19.1,19.3,-1.78
18062021,19.25,19.3,19.15,19.7,18.3,19.0,-1.55
21062021,25.95,19.0,18.9,19.2,17.4,18.85,-0.79
22062021,34.96,18.85,18.85,19.75,18.7,18.95,0.53
23062021,48.93,18.95,19.1,19.7,18.8,18.9,-0.26
24062021,52.04,18.9,19.25,19.4,18.6,18.7,-1.06
25062021,29.03,18.7,18.95,22.4,18.6,20.5,9.63
28062021,54.69,20.5,20.7,21.2,19.75,20.0,-2.44
29062021,69.94,20.0,20.05,20.25,19.6,19.7,-1.5
30062021,49.81,19.7,20.15,20.7,19.75,20.55,4.31
01072021,47.87,20.55,20.75,21.15,20.1,20.2,-1.7
02072021,55.47,20.2,20.45,20.7,19.8,19.9,-1.49
05072021,48.73,19.9,20.1,21.65,19.6,20.75,4.27
06072021,52.34,20.75,21.15,21.8,20.4,20.6,-0.72
07072021,29.88,20.6,21.1,24.7,21.1,24.7,19.9
08072021,50.65,24.7,24.95,24.95,22.6,22.85,-7.49
09072021,40.29,22.85,22.95,23.85,22.5,23.05,0.88
12072021,57.54,23.05,23.0,23.4,22.3,22.6,-1.95
13072021,68.66,22.6,22.95,23.1,21.6,21.75,-3.76
14072021,42.26,21.75,21.4,22.35,21.4,21.85,0.46
15072021,57.68,21.85,21.85,22.65,20.5,20.7,-5.26
16072021,45.28,20.7,21.0,21.7,20.4,20.65,-0.24
19072021,56.57,20.65,20.5,21.2,19.65,20.25,-1.94
20072021,50.46,20.25,20.05,20.95,18.7,20.65,1.98
21072021,50.46,20.25,20.05,20.95,18.7,20.65,1.98
22072021,45.24,20.65,21.5,21.5,20.5,21.05,1.94
23072021,51.94,21.05,21.25,21.85,20.5,20.65,-1.9
26072021,62.85,20.65,20.85,20.85,19.9,20.1,-2.66
27072021,46.63,20.1,19.95,23.75,19.95,22.15,10.2
28072021,43.19,22.15,22.6,23.5,21.95,23.0,3.84
29072021,41.87,23.0,23.25,24.1,22.6,22.75,-1.09
30072021,49.11,22.75,22.8,25.7,22.45,24.7,8.57
02082021,54.26,24.7,27.7,27.7,25.15,25.5,3.24
03082021,49.77,25.5,26.3,26.3,24.25,24.4,-4.31
04082021,52.26,24.4,25.2,25.2,22.85,23.1,-5.33
05082021,38.6,23.1,23.0,24.15,21.5,22.7,-1.73
06082021,61.24,22.7,22.75,23.7,22.25,22.7,0.0
09082021,37.75,22.7,22.75,23.3,22.25,22.75,0.22
10082021,59.89,22.75,22.85,22.85,20.55,20.85,-8.35
11082021,44.19,20.85,20.85,20.95,18.9,20.4,-2.16
12082021,59.7,20.4,20.5,21.6,20.5,20.85,2.21
13082021,44.96,20.85,20.85,22.4,20.6,21.35,2.4
16082021,53.75,21.35,21.15,21.5,20.0,20.3,-4.92
17082021,58.24,20.3,20.5,20.75,19.65,19.75,-2.71
18082021,62.58,19.75,19.85,20.5,19.5,19.65,-0.51
19082021,62.58,19.75,19.85,20.5,19.5,19.65,-0.51
20082021,55.13,19.65,19.0,19.65,17.0,18.7,-4.83
23082021,66.51,18.7,19.2,19.5,18.2,18.4,-1.6
24082021,37.28,18.4,18.45,20.6,18.2,19.95,8.42
25082021,59.29,19.95,20.0,20.45,19.55,19.75,-1.0
26082021,57.17,19.75,19.75,20.3,19.5,19.55,-1.01
27082021,70.79,19.55,19.55,19.75,18.5,18.9,-3.32
30082021,46.92,18.9,18.95,20.45,18.95,19.85,5.03
31082021,50.57,19.85,20.9,20.9,19.6,19.8,-0.25
01092021,46.65,19.8,20.0,20.7,19.65,20.05,1.26
02092021,50.04,20.05,20.1,20.4,19.7,19.8,-1.25
03092021,64.23,19.8,20.25,20.25,19.55,19.6,-1.01
06092021,47.46,19.6,19.7,19.95,19.15,19.55,-0.26
07092021,42.3,19.55,19.5,19.75,19.15,19.45,-0.51
08092021,55.4,19.45,19.75,19.75,18.9,19.05,-2.06
09092021,49.53,19.05,19.1,19.4,19.0,19.15,0.52
10092021,49.53,19.05,19.1,19.4,19.0,19.15,0.52
13092021,64.78,19.15,19.15,19.5,18.95,19.2,0.26
14092021,57.39,19.2,19.25,19.5,18.0,18.95,-1.3
15092021,49.7,18.95,18.7,19.35,18.7,19.05,0.53
16092021,49.61,19.05,19.0,19.3,19.0,19.05,0.0
17092021,66.01,19.05,19.05,19.2,18.2,18.7,-1.84
20092021,60.71,18.7,18.75,18.75,18.05,18.35,-1.87
21092021,68.09,18.35,18.35,18.65,18.35,18.45,0.54
22092021,45.08,18.45,18.7,19.0,18.5,18.6,0.81
23092021,71.35,18.6,18.95,19.1,18.4,18.45,-0.81
24092021,60.04,18.45,18.45,18.7,17.9,18.1,-1.9
27092021,41.13,18.1,18.2,18.95,17.7,18.6,2.76
28092021,48.32,18.6,18.25,20.25,18.25,19.5,4.84
29092021,63.85,19.5,19.7,19.95,19.35,19.65,0.77
30092021,64.4,19.65,19.9,20.75,19.35,19.5,-0.76
01102021,54.35,19.5,19.5,20.0,19.1,19.6,0.51
04102021,54.56,19.6,19.95,20.0,19.5,19.55,-0.26
05102021,53.98,19.55,19.55,21.0,19.35,20.5,4.86
06102021,60.06,20.5,20.9,21.1,19.5,19.7,-3.9
07102021,67.36,19.7,20.0,20.8,19.75,19.95,1.27
08102021,64.0,19.95,20.05,20.9,20.05,20.25,1.5
11102021,40.69,20.25,20.45,22.15,20.05,21.25,4.94
12102021,69.59,21.25,21.4,22.1,21.05,21.8,2.59
13102021,67.3,21.8,22.0,22.0,21.05,21.25,-2.52
14102021,74.07,21.25,21.5,21.5,20.6,20.9,-1.65
15102021,74.07,21.25,21.5,21.5,20.6,20.9,-1.65
18102021,71.22,20.9,20.95,20.95,20.05,20.15,-3.59
19102021,75.73,20.15,20.4,20.4,19.2,19.55,-2.98
20102021,76.06,19.55,19.6,19.75,19.1,19.15,-2.05
21102021,85.14,19.15,19.2,19.9,19.2,19.6,2.35
22102021,65.43,19.6,19.75,20.15,19.05,19.25,-1.79
25102021,63.28,19.25,19.2,19.3,18.55,18.95,-1.56
26102021,47.52,18.95,19.0,19.95,18.35,19.15,1.06
27102021,50.82,19.15,19.25,20.2,19.2,19.6,2.35
28102021,56.81,19.6,19.65,19.95,18.75,18.85,-3.83
29102021,80.22,18.85,18.9,19.35,18.6,18.8,-0.27
01112021,69.97,18.8,19.5,19.5,18.9,19.0,1.06
02112021,58.11,19.0,19.4,19.4,18.75,18.95,-0.26
03112021,57.9,18.95,19.0,19.25,18.65,18.9,-0.26
04112021,57.9,18.95,19.0,19.25,18.65,18.9,-0.26
05112021,57.75,18.9,19.25,19.3,19.0,19.05,0.79
08112021,57.19,19.05,19.0,19.25,19.0,19.05,0.0
09112021,70.19,19.05,19.05,19.25,19.05,19.05,0.0
10112021,51.17,19.05,19.05,19.25,18.85,18.95,-0.52
11112021,69.29,18.95,18.6,19.2,18.6,18.8,-0.79
12112021,46.28,18.8,18.75,22.35,18.75,21.95,16.76
15112021,53.24,21.95,21.55,21.55,19.8,20.05,-8.66
16112021,49.1,20.05,20.0,20.15,19.75,19.85,-1.0
17112021,38.04,19.85,19.8,21.6,19.75,20.15,1.51
18112021,60.93,20.15,20.5,20.5,19.75,19.95,-0.99
19112021,60.93,20.15,20.5,20.5,19.75,19.95,-0.99
22112021,36.74,19.95,19.75,20.75,18.8,19.25,-3.51
23112021,59.84,19.25,19.0,19.6,18.8,19.15,-0.52
24112021,60.0,19.15,19.15,19.7,18.9,19.2,0.26
25112021,51.75,19.2,19.2,19.5,19.0,19.35,0.78
26112021,42.64,19.35,18.05,19.65,18.05,19.05,-1.55
29112021,49.43,19.05,19.1,19.2,18.05,18.85,-1.05
30112021,53.05,18.85,18.6,19.45,18.6,18.75,-0.53
01122021,55.25,18.75,18.8,19.25,18.35,18.6,-0.8
02122021,58.07,18.6,18.9,18.95,18.6,18.9,1.61
03122021,66.94,18.9,19.1,19.1,18.55,18.65,-1.32
06122021,39.25,18.65,18.65,19.0,18.5,18.8,0.8
07122021,81.43,18.8,18.65,19.0,18.6,18.8,0.0
08122021,46.12,18.8,18.85,21.2,18.75,20.35,8.24
09122021,58.08,20.35,20.55,21.0,20.25,20.35,0.0
10122021,58.71,20.35,20.35,20.95,20.0,20.6,1.23
13122021,78.82,20.6,21.0,21.0,19.8,20.05,-2.67
14122021,48.26,20.05,20.2,22.0,19.9,21.4,6.73
15122021,67.65,21.4,21.65,21.65,20.1,20.35,-4.91
16122021,65.13,20.35,20.7,20.7,20.05,20.15,-0.98
17122021,52.6,20.15,20.05,20.05,18.95,19.25,-4.47
20122021,48.51,19.25,18.95,18.95,17.05,17.95,-6.75
21122021,69.14,17.95,18.15,18.75,17.85,18.35,2.23
22122021,71.44,18.35,18.35,19.55,18.1,18.95,3.27
23122021,51.94,18.95,19.6,19.8,18.8,19.0,0.26
24122021,65.99,19.0,19.35,19.35,17.85,18.25,-3.95
27122021,56.22,18.25,18.4,18.8,18.0,18.5,1.37
28122021,61.4,18.5,18.5,19.45,18.5,19.2,3.78
29122021,42.44,19.2,19.5,20.45,18.8,19.5,1.56
30122021,43.1,19.5,19.5,21.45,19.5,20.45,4.87
31122021,67.91,20.45,20.8,20.8,20.1,20.2,-1.22
03012022,74.39,20.2,20.25,21.35,20.1,20.55,1.73
04012022,52.23,20.55,21.0,22.85,20.45,21.45,4.38
05012022,43.96,21.45,21.4,22.25,21.15,21.85,1.86
06012022,57.08,21.85,21.65,21.95,21.1,21.6,-1.14
07012022,51.85,21.6,21.85,22.4,20.75,20.85,-3.47
10012022,62.25,20.85,21.15,22.75,20.9,22.1,6.0
11012022,65.71,22.1,22.3,22.3,21.05,21.25,-3.85
12012022,57.56,21.25,21.5,22.3,21.4,21.75,2.35
13012022,65.91,21.75,22.0,22.0,21.05,21.2,-2.53
14012022,47.19,21.2,21.4,21.95,21.05,21.35,0.71
17012022,58.82,21.35,21.2,21.9,21.2,21.55,0.94
18012022,56.25,21.55,21.55,21.9,20.8,21.05,-2.32
19012022,52.23,21.05,21.35,21.5,19.6,20.6,-2.14
20012022,44.51,20.6,20.6,21.25,20.35,20.7,0.49
21012022,54.12,20.7,20.25,20.85,20.05,20.3,-1.93
24012022,66.2,20.3,20.0,20.3,19.05,19.25,-5.17
25012022,62.6,19.25,19.15,19.5,18.9,19.2,-0.26
27012022,61.37,19.2,19.0,19.85,18.75,19.75,2.86
28012022,47.96,19.75,20.25,20.6,19.55,19.65,-0.51
31012022,96.75,19.65,20.05,20.05,19.55,19.7,0.25
01022022,54.51,19.7,19.9,20.4,19.25,19.5,-1.02
02022022,43.1,19.5,19.55,21.35,19.55,20.75,6.41
03022022,51.51,20.75,21.2,21.5,20.4,20.6,-0.72
04022022,48.31,20.6,20.95,21.1,20.1,20.6,0.0
07022022,76.73,20.6,20.85,20.85,20.0,20.1,-2.43
08022022,65.23,20.1,20.1,20.2,19.35,19.85,-1.24
09022022,54.58,19.85,19.9,20.5,19.65,19.75,-0.5
10022022,67.7,19.75,19.95,19.95,19.55,19.7,-0.25
11022022,60.11,19.7,19.6,19.95,19.5,19.65,-0.25
14022022,75.02,19.65,19.05,19.85,18.7,18.85,-4.07
15022022,71.79,18.85,18.7,19.25,18.35,18.95,0.53
16022022,53.55,18.95,19.6,20.9,19.05,20.05,5.8
17022022,69.7,20.05,19.9,20.5,19.05,19.2,-4.24
18022022,69.82,19.2,19.0,19.4,18.8,18.85,-1.82
21022022,74.65,18.85,19.2,19.2,18.15,18.4,-2.39
22022022,78.43,18.4,18.0,18.45,17.25,18.15,-1.36
23022022,61.77,18.15,18.35,18.75,18.05,18.3,0.83
24022022,60.74,18.3,17.8,17.8,16.55,16.85,-7.92
25022022,63.81,16.85,17.15,18.3,17.15,17.75,5.34
28022022,40.81,17.75,17.75,18.25,16.2,17.9,0.85
01032022,40.81,17.75,17.75,18.25,16.2,17.9,0.85
02032022,49.44,17.9,17.95,18.2,17.5,17.8,-0.56
03032022,73.07,17.8,17.85,18.25,17.3,17.55,-1.4
04032022,54.26,17.55,17.55,17.8,17.1,17.15,-2.28
07032022,70.72,17.15,17.4,17.4,16.6,16.85,-1.75
08032022,69.95,16.85,17.2,17.2,16.85,17.1,1.48
09032022,65.03,17.1,16.9,17.7,16.9,17.55,2.63
10032022,75.97,17.55,17.6,18.0,17.2,17.5,-0.28
11032022,38.18,17.5,17.9,18.9,17.55,18.55,6.0
14032022,44.7,18.55,18.55,19.3,18.55,18.7,0.81
15032022,44.38,18.7,18.85,19.45,18.35,18.6,-0.53
16032022,35.03,18.6,18.5,20.3,18.5,19.6,5.38
17032022,68.02,19.6,19.85,20.1,19.2,19.5,-0.51
18032022,68.02,19.6,19.85,20.1,19.2,19.5,-0.51
21032022,49.28,19.5,19.8,19.8,18.15,18.2,-6.67
22032022,49.22,18.2,18.45,18.45,17.65,17.9,-1.65
23032022,56.13,17.9,17.85,18.25,17.65,17.8,-0.56
24032022,43.99,17.8,17.8,18.5,17.6,17.8,0.0
25032022,56.26,17.8,17.95,18.2,17.5,17.75,-0.28
28032022,55.54,17.75,17.95,17.95,17.3,17.4,-1.97
29032022,54.55,17.4,17.5,18.0,16.9,17.0,-2.3
30032022,65.05,17.0,17.15,17.6,17.1,17.15,0.88
31032022,64.86,17.15,17.15,17.45,16.9,17.05,-0.58
01042022,56.14,17.05,17.0,17.95,17.0,17.7,3.81
04042022,63.68,17.7,18.2,18.4,18.0,18.2,2.82
05042022,52.31,18.2,18.6,19.3,18.1,18.85,3.57
06042022,53.13,18.85,18.85,19.4,18.35,18.8,-0.27
07042022,55.11,18.8,18.9,21.3,18.9,20.35,8.24
08042022,74.7,20.35,20.7,21.05,20.2,20.5,0.74
11042022,74.91,20.5,20.85,20.9,19.45,19.6,-4.39
12042022,56.66,19.6,19.6,19.75,18.95,19.3,-1.53
13042022,58.17,19.3,19.3,20.2,19.2,19.65,1.81
14042022,58.17,19.3,19.3,20.2,19.2,19.65,1.81
15042022,58.17,19.3,19.3,20.2,19.2,19.65,1.81
18042022,36.2,19.65,19.0,20.8,18.85,19.8,0.76
19042022,37.75,19.8,20.05,21.9,19.3,20.05,1.26
20042022,57.22,20.05,20.25,20.85,19.45,19.95,-0.5
21042022,60.45,19.95,19.75,21.65,19.7,21.25,6.52
22042022,67.91,21.25,21.3,21.5,20.55,20.6,-3.06
25042022,75.68,20.6,20.7,20.8,19.6,19.65,-4.61
26042022,53.62,19.65,19.7,20.5,19.5,19.65,0.0
27042022,56.91,19.65,19.5,19.7,19.0,19.2,-2.29
28042022,57.19,19.2,19.95,19.95,18.85,19.05,-0.78
29042022,65.44,19.05,19.4,19.4,18.8,18.85,-1.05
02052022,69.82,18.85,18.8,19.1,18.75,18.95,0.53
03052022,69.82,18.85,18.8,19.1,18.75,18.95,0.53
04052022,83.3,18.95,18.55,19.0,18.15,18.4,-2.9
05052022,55.66,18.4,18.45,18.65,17.8,18.1,-1.63
06052022,70.86,18.1,18.4,18.5,17.6,17.75,-1.93
09052022,62.37,17.75,17.45,17.65,16.7,17.1,-3.66
10052022,64.73,17.1,17.2,17.95,17.1,17.4,1.75
11052022,52.11,17.4,17.75,17.75,16.25,17.15,-1.44
12052022,74.82,17.15,17.15,17.15,16.4,16.7,-2.62
13052022,58.74,16.7,17.0,17.45,16.15,16.6,-0.6
16052022,67.44,16.6,16.95,17.85,16.95,17.25,3.92
17052022,67.43,17.25,17.25,17.95,17.25,17.8,3.19
18052022,72.05,17.8,17.5,18.5,17.45,17.55,-1.4
19052022,61.21,17.55,17.8,17.95,16.9,17.15,-2.28
20052022,68.44,17.15,17.5,17.8,17.3,17.7,3.21
23052022,62.3,17.7,17.95,17.95,17.1,17.2,-2.82
24052022,71.29,17.2,17.1,17.35,16.85,17.0,-1.16
25052022,76.48,17.0,17.2,17.2,16.4,16.7,-1.76
26052022,75.54,16.7,16.75,17.2,16.15,16.45,-1.5
27052022,56.17,16.45,16.45,17.2,16.45,16.85,2.43
30052022,77.2,16.85,16.85,17.3,16.75,17.0,0.89
31052022,52.64,17.0,17.05,17.05,16.55,16.75,-1.47
01062022,67.42,16.75,16.75,17.1,16.65,16.7,-0.3
02062022,64.6,16.7,16.7,16.85,16.25,16.55,-0.9
03062022,69.19,16.55,16.9,16.9,16.0,16.15,-2.42
06062022,77.24,16.15,16.45,16.45,16.15,16.3,0.93
07062022,84.58,16.3,16.3,16.5,16.15,16.2,-0.61
08062022,58.63,16.2,16.2,16.65,16.1,16.2,0.0
09062022,80.51,16.2,15.9,16.4,15.9,16.1,-0.62
10062022,83.82,16.1,16.0,16.25,15.95,16.05,-0.31
13062022,85.59,16.05,15.45,16.1,15.45,15.55,-3.12
14062022,63.7,15.55,15.8,16.45,15.55,15.85,1.93
15062022,64.41,15.85,16.0,16.15,15.55,15.6,-1.58
16062022,56.41,15.6,15.4,15.95,15.4,15.5,-0.64
17062022,85.79,15.5,15.5,15.6,15.2,15.25,-1.61
20062022,70.57,15.25,15.25,15.5,14.3,14.75,-3.28
21062022,51.95,14.75,14.75,15.25,14.6,14.95,1.36
22062022,70.95,14.95,14.7,15.8,14.6,14.85,-0.67
23062022,66.32,14.85,14.7,15.6,14.65,15.2,2.36
24062022,60.19,15.2,14.9,15.7,14.8,15.3,0.66
27062022,44.29,15.3,15.1,15.7,15.0,15.45,0.98
28062022,51.31,15.45,15.45,15.7,15.1,15.45,0.0
29062022,31.33,15.45,15.15,15.9,15.0,15.4,-0.32
30062022,68.9,15.4,15.2,15.7,15.2,15.3,-0.65
01072022,58.47,15.3,15.25,15.7,15.25,15.4,0.65
04072022,57.29,15.4,15.8,15.8,15.45,15.55,0.97
05072022,24.12,15.55,15.55,17.1,15.35,16.15,3.86
06072022,47.28,16.15,16.5,16.5,16.0,16.05,-0.62
07072022,65.24,16.05,16.05,16.45,16.0,16.1,0.31
08072022,62.85,16.1,15.75,16.45,15.75,16.1,0.0
11072022,58.11,16.1,15.9,16.5,15.75,16.1,0.0
12072022,59.73,16.1,16.05,16.4,15.55,16.0,-0.62
13072022,38.92,16.0,16.35,16.65,16.15,16.2,1.25
14072022,57.0,16.2,16.05,16.5,15.75,15.8,-2.47
15072022,61.41,15.8,16.0,16.2,15.8,15.9,0.63
18072022,38.41,15.9,16.2,16.3,15.85,16.15,1.57
19072022,48.09,16.15,15.9,16.5,15.9,16.2,0.31
20072022,73.5,16.2,16.5,16.65,16.05,16.25,0.31
21072022,79.27,16.25,16.15,16.25,16.0,16.05,-1.23
22072022,70.94,16.05,16.0,16.3,16.0,16.05,0.0
25072022,67.74,16.05,16.1,16.2,15.75,15.85,-1.25
26072022,70.34,15.85,15.75,16.1,15.75,15.85,0.0
27072022,67.72,15.85,15.85,16.4,15.85,15.95,0.63
28072022,66.46,15.95,15.85,16.25,15.8,15.85,-0.63
29072022,81.47,15.85,15.85,16.2,15.8,15.85,0.0
01082022,62.18,15.85,16.4,16.7,16.05,16.5,4.1
02082022,81.88,16.5,16.4,17.25,16.4,16.95,2.73
03082022,65.04,16.95,16.75,16.9,16.3,16.45,-2.95
04082022,59.59,16.45,16.5,16.9,16.15,16.65,1.22
05082022,50.29,16.65,16.65,16.75,16.3,16.4,-1.5
10082022,37.56,16.35,16.35,17.2,16.05,16.6,1.53
11082022,68.76,16.6,16.95,16.95,16.05,16.25,-2.11
12082022,70.0,16.25,16.25,16.5,16.2,16.3,0.31
16082022,76.19,16.3,16.45,16.55,16.1,16.35,0.31
17082022,68.52,16.35,16.55,16.75,16.4,16.6,1.53
18082022,73.59,16.6,16.6,16.7,16.4,16.55,-0.3
19082022,67.91,16.55,16.75,16.95,16.45,16.65,0.6
22082022,63.81,16.65,16.25,16.7,16.15,16.15,-3.0
23082022,75.56,16.15,16.4,16.9,16.35,16.35,1.24
24082022,42.36,16.35,16.7,17.2,16.5,16.75,2.45
25082022,84.35,16.75,17.15,17.2,16.75,16.8,0.3
26082022,70.41,16.8,16.9,17.3,16.75,17.05,1.49
29082022,45.63,17.05,16.9,17.45,16.6,16.95,-0.59
30082022,79.56,16.95,17.3,17.3,16.85,17.0,0.29
31082022,79.56,16.95,17.3,17.3,16.85,17.0,0.29
01092022,61.54,17.0,17.1,17.3,16.8,17.0,0.0
02092022,66.71,17.0,17.0,17.1,16.7,16.8,-1.18
05092022,65.95,16.8,16.8,17.1,16.6,16.7,-0.6
06092022,41.78,16.7,16.95,17.45,16.7,16.8,0.6
07092022,75.01,16.8,16.95,17.1,16.65,16.7,-0.6
08092022,60.09,16.7,16.95,18.2,16.7,17.75,6.29
09092022,67.96,17.75,17.95,18.35,17.75,17.8,0.28
12092022,81.18,17.8,18.0,18.05,17.1,17.4,-2.25
13092022,76.31,17.4,17.75,17.95,17.4,17.85,2.59
14092022,64.74,17.85,17.95,17.95,16.5,17.55,-1.68
15092022,57.02,17.55,17.8,17.9,16.95,17.2,-1.99
16092022,78.45,17.2,16.9,17.2,16.6,16.8,-2.33
19092022,67.52,16.8,17.3,17.3,16.6,16.65,-0.89
20092022,75.31,16.65,16.85,17.0,16.65,16.75,0.6
21092022,77.98,16.75,16.75,16.95,16.25,16.4,-2.09
22092022,84.45,16.4,16.4,16.6,16.4,16.5,0.61
23092022,68.28,16.5,16.95,16.95,15.8,16.0,-3.03
26092022,84.15,16.0,16.1,16.1,15.2,15.35,-4.06
27092022,83.82,15.35,15.85,15.85,15.4,15.7,2.28
28092022,48.86,15.7,15.5,16.2,15.3,15.7,0.0
29092022,75.69,15.7,15.75,15.9,15.4,15.55,-0.96
30092022,61.25,15.55,15.3,15.8,15.3,15.5,-0.32
03102022,70.64,15.5,15.5,15.75,15.05,15.3,-1.29
04102022,72.36,15.3,15.75,15.75,15.15,15.55,1.63
05102022,72.36,15.3,15.75,15.75,15.15,15.55,1.63
06102022,81.37,15.55,15.55,16.3,15.3,16.2,4.18
07102022,91.77,16.2,16.5,16.5,15.9,16.15,-0.31
10102022,54.02,16.15,15.9,16.3,15.85,16.2,0.31
11102022,93.75,16.2,16.2,16.2,16.0,16.1,-0.62
12102022,42.65,16.1,16.45,16.45,15.9,16.0,-0.62
13102022,61.3,16.0,16.0,16.3,15.75,15.9,-0.62
14102022,45.77,15.9,15.95,16.25,15.85,16.0,0.63
17102022,84.74,16.0,16.2,16.2,15.1,15.5,-3.12
18102022,73.37,15.5,15.55,15.85,15.25,15.5,0.0
19102022,60.83,15.5,15.8,15.8,15.45,15.5,0.0
20102022,76.39,15.5,15.45,15.65,15.3,15.45,-0.32
21102022,63.3,15.45,15.45,15.7,15.25,15.35,-0.65
24102022,81.73,15.35,15.65,15.65,15.15,15.6,1.63
25102022,59.19,15.6,15.65,15.7,15.35,15.45,-0.96
26102022,59.19,15.6,15.65,15.7,15.35,15.45,-0.96
27102022,53.29,15.45,15.45,15.95,15.25,15.45,0.0
28102022,85.19,15.45,15.75,16.05,15.4,15.95,3.24
31102022,53.04,15.95,15.7,16.25,15.7,15.8,-0.94
01112022,69.88,15.8,15.65,16.0,15.6,15.75,-0.32
02112022,84.97,15.75,16.0,16.0,15.5,15.55,-1.27
03112022,59.77,15.55,15.55,15.7,15.3,15.35,-1.29
04112022,88.95,15.35,15.7,16.25,15.35,16.0,4.23
07112022,78.84,16.0,16.0,16.25,15.8,16.05,0.31
08112022,78.84,16.0,16.0,16.25,15.8,16.05,0.31
09112022,75.84,16.05,16.25,17.0,15.8,16.25,1.25
10112022,79.17,16.25,16.25,16.95,16.25,16.4,0.92
11112022,80.19,16.4,16.4,16.75,15.75,15.95,-2.74
14112022,49.55,15.95,15.95,16.1,15.75,15.75,-1.25
15112022,64.07,15.75,15.8,15.95,15.5,15.6,-0.95
16112022,77.35,15.6,15.55,15.75,15.35,15.45,-0.96
17112022,59.34,15.45,15.5,15.8,15.3,15.6,0.97
18112022,86.14,15.6,15.6,15.75,15.4,15.4,-1.28
21112022,66.73,15.4,15.3,15.55,15.0,15.1,-1.95
22112022,62.11,15.1,15.1,15.45,15.1,15.25,0.99
23112022,65.38,15.25,15.25,15.6,15.1,15.3,0.33
24112022,84.79,15.3,15.6,15.6,15.25,15.4,0.65
25112022,80.76,15.4,15.45,15.8,15.25,15.6,1.3
28112022,75.8,15.6,15.75,15.85,15.35,15.4,-1.28
29112022,58.66,15.4,15.8,15.8,15.15,15.6,1.3
30112022,61.26,15.6,15.6,15.7,15.35,15.45,-0.96
01122022,77.25,15.45,15.45,15.7,14.85,15.1,-2.27
02122022,81.71,15.1,15.15,15.3,15.0,15.1,0.0
05122022,81.71,15.1,15.1,15.6,15.1,15.35,1.66
06122022,71.23,15.35,15.35,15.55,15.05,15.15,-1.3
07122022,71.2,15.15,15.35,15.35,15.05,15.2,0.33
08122022,70.61,15.2,15.2,15.3,15.05,15.25,0.33
09122022,77.05,15.25,15.15,15.4,15.05,15.05,-1.31
12122022,79.81,15.05,15.55,15.55,14.8,15.05,0.0
13122022,45.95,15.05,15.05,17.0,15.05,16.1,6.98
14122022,57.58,16.1,16.3,16.45,16.0,16.1,0.0
15122022,62.69,16.1,16.2,16.2,14.35,15.3,-4.97
16122022,86.67,15.3,15.45,15.7,15.1,15.3,0.0
19122022,49.49,15.3,15.7,16.3,15.15,15.9,3.92
20122022,35.05,15.9,15.9,17.5,15.7,16.5,3.77
21122022,59.29,16.5,16.75,17.0,15.15,15.3,-7.27
22122022,78.76,15.3,15.15,15.65,14.8,15.05,-1.63
23122022,87.98,15.05,15.0,15.0,14.4,14.5,-3.65
26122022,52.76,14.5,14.5,15.15,14.5,15.0,3.45
27122022,82.06,15.0,14.9,15.4,14.9,15.1,0.67
28122022,41.98,15.1,15.4,15.5,15.1,15.25,0.99
29122022,28.58,15.25,15.05,15.6,15.0,15.2,-0.33
30122022,60.78,15.2,15.5,15.95,15.1,15.4,1.32
02012023,61.45,15.4,15.6,16.3,15.35,16.15,4.87
03012023,77.17,16.15,16.15,16.3,15.65,16.1,-0.31
04012023,81.2,16.1,16.15,16.15,15.6,15.65,-2.8
05012023,47.93,15.65,15.7,15.95,15.5,15.65,0.0
06012023,79.21,15.65,15.65,15.95,15.65,15.65,0.0
09012023,81.86,15.65,15.95,16.0,15.25,15.5,-0.96
10012023,81.85,15.5,15.5,15.75,15.15,15.3,-1.29
11012023,60.83,15.3,15.5,15.9,15.4,15.4,0.65
12012023,80.22,15.4,15.5,15.75,15.2,15.3,-0.65
13012023,73.75,15.3,15.25,15.45,15.25,15.35,0.33
16012023,50.75,15.35,15.35,15.65,15.2,15.3,-0.33
17012023,88.25,15.3,15.2,15.55,15.2,15.4,0.65
18012023,77.16,15.4,15.7,15.7,15.2,15.25,-0.97
19012023,66.61,15.25,15.2,15.5,14.95,15.1,-0.98
20012023,62.88,15.1,15.1,15.45,15.1,15.2,0.66
23012023,67.23,15.2,15.45,15.45,15.1,15.1,-0.66
24012023,91.26,15.1,15.15,15.3,14.8,14.95,-0.99
25012023,80.9,14.95,14.9,15.0,14.65,14.8,-1.0
27012023,62.66,14.8,14.8,14.85,14.2,14.3,-3.38
30012023,39.3,14.3,14.35,14.7,14.25,14.3,0.0
31012023,43.56,14.3,14.25,14.5,14.25,14.3,0.0
01022023,82.14,14.3,14.5,14.5,13.9,14.05,-1.75
02022023,68.89,14.05,14.0,14.25,13.95,14.1,0.36
03022023,79.54,14.1,14.35,14.35,13.6,13.85,-1.77
06022023,71.12,13.85,13.8,14.25,13.6,13.65,-1.44
07022023,68.58,13.65,13.75,14.0,13.55,13.65,0.0
08022023,66.05,13.65,14.0,14.0,13.65,13.8,1.1
09022023,79.45,13.8,13.8,14.0,13.65,13.9,0.72
10022023,58.24,13.9,13.9,14.1,13.75,13.8,-0.72
13022023,63.68,13.8,13.65,13.9,13.6,13.65,-1.09
14022023,87.37,13.65,13.8,13.85,13.3,13.55,-0.73
15022023,56.45,13.55,13.55,13.55,13.25,13.3,-1.85
16022023,70.79,13.3,13.3,13.5,13.2,13.3,0.0
17022023,88.09,13.3,13.5,13.55,13.45,13.5,1.5
20022023,58.1,13.5,13.9,13.9,13.35,13.4,-0.74
21022023,83.19,13.4,13.6,13.6,13.15,13.2,-1.49
22022023,80.14,13.2,13.35,13.5,12.85,13.3,0.76
23022023,79.57,13.3,13.5,13.5,13.05,13.1,-1.5
24022023,75.78,13.1,13.3,13.3,12.9,13.0,-0.76
27022023,59.17,13.0,12.95,13.25,11.1,11.45,-11.92
28022023,61.5,11.45,11.7,11.8,10.8,11.6,1.31
01032023,55.42,11.6,11.55,12.6,11.5,12.35,6.47
02032023,70.22,12.35,12.35,12.95,12.35,12.85,4.05
03032023,40.08,12.85,12.95,13.0,12.5,12.7,-1.17
06032023,92.74,12.7,12.4,12.9,12.35,12.75,0.39
07032023,92.74,12.7,12.4,12.9,12.35,12.75,0.39
08032023,81.25,12.75,12.75,12.85,12.6,12.75,0.0
09032023,57.13,12.75,12.95,13.0,12.5,12.65,-0.78
10032023,86.14,12.65,12.5,12.65,11.45,11.65,-7.91
13032023,84.04,11.65,11.9,11.9,11.2,11.25,-3.43
14032023,65.17,11.25,11.4,11.55,11.2,11.4,1.33
15032023,72.99,11.4,11.7,11.8,11.05,11.5,0.88
16032023,93.43,11.5,11.4,11.65,11.2,11.4,-0.87
17032023,80.64,11.4,11.7,11.85,11.15,11.4,0.0
20032023,85.86,11.4,11.0,11.6,10.85,11.0,-3.51
21032023,60.47,11.0,11.0,11.2,10.95,11.0,0.0
22032023,76.16,11.0,11.0,11.2,10.65,10.9,-0.91
23032023,67.31,10.9,10.85,11.35,10.85,11.0,0.92
24032023,82.87,11.0,10.9,11.15,10.7,10.7,-2.73
27032023,89.98,10.7,10.8,10.9,10.35,10.4,-2.8
28032023,77.7,10.4,10.9,10.9,10.4,10.6,1.92
29032023,79.46,10.6,10.5,11.1,10.45,10.55,-0.47
30032023,79.46,10.6,10.5,11.1,10.45,10.55,-0.47
31032023,80.76,10.55,10.6,11.75,10.55,11.15,5.69
03042023,64.79,11.15,11.4,13.2,11.15,12.9,15.7
04042023,64.79,11.15,11.4,13.2,11.15,12.9,15.7
05042023,76.11,12.9,13.0,13.2,11.6,12.1,-6.2
06042023,56.83,12.1,12.45,12.45,11.5,12.05,-0.41
07042023,56.83,12.1,12.45,12.45,11.5,12.05,-0.41
10042023,69.87,12.05,12.5,12.5,11.5,11.85,-1.66
11042023,88.7,11.85,12.25,13.35,11.7,13.1,10.55
12042023,84.92,13.1,13.25,13.45,12.55,12.75,-2.67
13042023,77.92,12.75,12.75,13.45,12.55,13.0,1.96
14042023,77.92,12.75,12.75,13.45,12.55,13.0,1.96
17042023,91.83,13.0,13.3,13.3,12.55,12.65,-2.69
18042023,75.61,12.65,12.8,13.0,12.65,12.9,1.98
19042023,68.08,12.9,13.0,13.0,12.5,12.6,-2.33
20042023,90.04,12.6,12.6,12.8,12.5,12.55,-0.4
21042023,54.11,12.55,12.6,12.6,12.05,12.2,-2.79
24042023,46.57,12.2,12.2,12.7,11.95,12.35,1.23
25042023,71.03,12.35,12.35,12.65,12.2,12.5,1.21
26042023,67.16,12.5,12.7,12.7,12.25,12.55,0.4
27042023,56.29,12.55,12.35,12.8,12.35,12.7,1.2
28042023,71.08,12.7,12.75,12.85,12.55,12.75,0.39
01052023,71.08,12.7,12.75,12.85,12.55,12.75,0.39
02052023,60.27,12.75,12.75,12.9,12.6,12.7,-0.39
03052023,63.19,12.7,12.7,12.95,12.35,12.85,1.18
04052023,44.39,12.85,12.85,13.35,12.6,12.9,0.39
05052023,81.24,12.9,12.95,13.0,12.7,12.85,-0.39
08052023,50.36,12.85,12.95,14.25,12.8,13.8,7.39
09052023,73.82,13.8,13.8,14.0,13.5,13.5,-2.17
10052023,67.15,13.5,13.5,13.5,13.1,13.1,-2.96
11052023,59.45,13.1,13.1,13.4,13.1,13.2,0.76
12052023,82.79,13.2,13.4,13.4,13.0,13.05,-1.14
15052023,51.38,13.05,13.1,13.7,13.05,13.25,1.53
16052023,77.52,13.25,13.45,13.45,13.05,13.1,-1.13
17052023,65.78,13.1,13.05,13.2,12.8,12.85,-1.91
18052023,60.58,12.85,13.0,13.2,12.75,12.8,-0.39
19052023,72.1,12.8,12.95,13.0,12.7,12.95,1.17
22052023,64.56,12.95,12.95,13.0,12.6,12.95,0.0
23052023,49.73,12.95,13.05,13.05,12.75,12.8,-1.16
24052023,71.28,12.8,12.8,13.45,12.7,13.3,3.91
25052023,66.3,13.3,13.3,13.9,13.05,13.55,1.88
26052023,66.85,13.55,13.55,13.95,13.35,13.55,0.0
29052023,44.09,13.55,13.6,13.9,13.5,13.5,-0.37
30052023,71.46,13.5,13.75,13.75,13.1,13.4,-0.74
31052023,69.96,13.4,13.55,13.55,12.6,12.9,-3.73
01062023,40.27,12.9,13.0,13.25,12.9,13.15,1.94
02062023,69.78,13.15,13.2,13.25,12.95,12.95,-1.52
05062023,52.75,12.95,13.2,13.3,12.95,13.05,0.77
06062023,90.54,13.05,13.25,13.25,12.85,12.9,-1.15
07062023,57.52,12.9,12.9,13.95,12.9,13.4,3.88
08062023,76.83,13.4,13.4,13.75,12.95,13.0,-2.99
09062023,64.49,13.0,13.0,13.4,13.0,13.2,1.54
12062023,69.16,13.2,13.1,13.4,13.05,13.15,-0.38
13062023,77.96,13.15,13.1,13.5,13.1,13.25,0.76
14062023,67.2,13.25,13.2,13.8,13.05,13.6,2.64
15062023,65.51,13.6,13.75,13.8,13.15,13.25,-2.57
16062023,82.55,13.25,13.25,13.5,13.1,13.45,1.51
19062023,70.1,13.45,13.25,13.7,13.15,13.2,-1.86
20062023,70.84,13.2,13.35,13.6,13.15,13.4,1.52
21062023,87.74,13.4,13.4,13.6,13.2,13.4,0.0
22062023,67.92,13.4,13.6,13.65,13.2,13.25,-1.12
23062023,67.14,13.25,13.25,13.25,13.0,13.1,-1.13
26062023,72.34,13.1,13.25,13.5,13.05,13.25,1.15
27062023,65.2,13.25,13.25,13.45,13.1,13.15,-0.75
28062023,64.12,13.15,13.1,13.25,13.05,13.05,-0.76
29062023,64.12,13.15,13.1,13.25,13.05,13.05,-0.76
30062023,37.89,13.05,12.95,13.5,12.95,13.2,1.15
03072023,65.78,13.2,13.45,13.45,13.15,13.4,1.52
04072023,77.13,13.4,13.5,13.5,13.15,13.2,-1.49
05072023,76.85,13.2,13.2,13.5,13.15,13.2,0.0
06072023,77.14,13.2,13.2,13.35,13.1,13.25,0.38
07072023,71.56,13.25,13.25,13.3,12.55,12.9,-2.64
10072023,82.28,12.9,12.9,13.0,12.75,12.8,-0.78
11072023,84.16,12.8,12.8,13.0,12.7,12.8,0.0
12072023,63.34,12.8,13.0,13.0,12.6,12.7,-0.78
13072023,70.98,12.7,12.75,12.85,12.65,12.7,0.0
14072023,66.52,12.7,12.7,12.8,12.6,12.65,-0.39
17072023,84.8,12.65,12.6,12.9,12.6,12.75,0.79
18072023,77.01,12.75,12.7,12.85,12.55,12.6,-1.18
19072023,86.68,12.6,12.6,12.75,12.55,12.65,0.4
20072023,54.62,12.65,12.75,12.75,12.45,12.55,-0.79
21072023,51.28,12.55,12.5,12.6,12.5,12.5,-0.4
24072023,87.36,12.5,12.5,12.5,12.25,12.3,-1.6
25072023,71.95,12.3,12.4,12.6,12.3,12.45,1.22
26072023,87.81,12.45,12.5,12.55,12.35,12.5,0.4
27072023,85.6,12.5,12.6,12.6,12.4,12.4,-0.8
28072023,78.63,12.4,12.4,12.5,12.25,12.35,-0.4
31072023,73.34,12.35,12.35,12.55,12.3,12.35,0.0
01082023,72.17,12.35,12.5,12.6,12.35,12.45,0.81
02082023,81.6,12.45,12.5,12.5,12.2,12.2,-2.01
03082023,60.26,12.2,12.4,12.4,12.15,12.25,0.41
04082023,75.37,12.25,12.45,12.45,12.25,12.3,0.41
07082023,95.14,12.3,12.2,12.4,12.15,12.15,-1.22
08082023,72.65,12.15,12.15,12.4,12.15,12.25,0.82
09082023,72.02,12.25,12.25,12.35,12.1,12.2,-0.41
10082023,89.85,12.2,12.2,12.3,12.15,12.15,-0.41
11082023,47.66,12.15,12.25,13.5,12.15,12.9,6.17
14082023,62.53,12.9,12.9,13.2,12.6,12.75,-1.16
16082023,52.51,12.75,12.6,13.9,12.6,13.5,5.88
17082023,55.98,13.5,13.6,13.8,13.25,13.35,-1.11
18082023,64.11,13.35,13.35,13.5,12.95,13.05,-2.25
21082023,70.36,13.05,13.25,13.4,13.0,13.1,0.38
22082023,67.13,13.1,13.2,13.8,12.95,13.05,-0.38
23082023,42.74,13.05,13.15,13.75,13.1,13.25,1.53
24082023,48.63,13.25,13.3,13.5,13.15,13.3,0.38
25082023,53.85,13.3,13.35,13.7,13.15,13.45,1.13
28082023,62.04,13.45,13.5,13.6,13.0,13.2,-1.86
29082023,69.29,13.2,13.2,13.4,13.05,13.1,-0.76
30082023,52.13,13.1,13.25,13.45,13.0,13.1,0.0
31082023,67.78,13.1,13.1,13.3,12.9,12.95,-1.15
01092023,76.9,12.95,13.0,13.15,12.95,13.05,0.77
04092023,62.43,13.05,13.1,13.45,13.0,13.25,1.53
05092023,32.92,13.25,13.45,15.9,13.35,15.9,20.0
06092023,44.25,15.9,16.1,17.4,15.05,16.75,5.35
07092023,62.58,16.75,17.05,18.55,16.6,17.0,1.49
08092023,49.47,17.0,17.4,17.4,16.1,16.25,-4.41
11092023,68.02,16.25,16.5,16.65,16.05,16.15,-0.62
12092023,62.94,16.15,16.35,16.35,14.8,14.95,-7.43
13092023,65.57,14.95,14.85,15.8,14.55,15.65,4.68
14092023,55.73,15.65,15.95,16.0,15.5,15.55,-0.64
15092023,74.67,15.55,15.5,16.5,15.4,16.2,4.18
18092023,72.48,16.2,16.45,16.45,15.5,15.75,-2.78
19092023,72.48,16.2,16.45,16.45,15.5,15.75,-2.78
20092023,62.9,15.75,15.7,15.7,15.05,15.2,-3.49
21092023,62.91,15.2,15.15,15.75,15.1,15.2,0.0
22092023,61.86,15.2,15.2,15.4,14.95,15.05,-0.99
25092023,74.79,15.05,15.3,15.65,15.15,15.4,2.33
26092023,62.53,15.4,15.5,15.5,15.05,15.1,-1.95
27092023,58.51,15.1,15.3,15.4,14.8,15.0,-0.66
28092023,74.28,15.0,15.0,15.3,14.75,14.8,-1.33
29092023,77.2,14.8,14.8,15.0,14.6,14.7,-0.68
03102023,65.36,14.7,14.8,15.0,14.6,14.85,1.02
04102023,82.2,14.85,15.0,15.0,14.8,14.95,0.67
05102023,75.37,14.95,14.9,15.0,14.55,14.7,-1.67
06102023,72.8,14.7,14.95,15.25,14.75,15.05,2.38
09102023,68.15,15.05,15.05,15.15,14.6,14.7,-2.33
10102023,68.11,14.7,14.9,15.05,14.4,14.6,-0.68
11102023,52.57,14.6,14.65,16.3,14.6,16.15,10.62
12102023,66.53,16.15,16.4,16.4,15.5,15.9,-1.55
13102023,71.46,15.9,16.0,16.0,15.5,15.55,-2.2
16102023,66.91,15.55,15.8,16.0,15.15,15.4,-0.96
17102023,74.96,15.4,15.45,15.7,15.25,15.35,-0.32
18102023,73.3,15.35,15.35,15.5,14.95,15.1,-1.63
19102023,53.04,15.1,15.1,15.2,14.8,14.95,-0.99
20102023,49.33,14.95,15.05,15.4,14.8,15.0,0.33
23102023,56.11,15.0,15.2,15.2,13.55,13.8,-8.0
24102023,56.11,15.0,15.2,15.2,13.55,13.8,-8.0
25102023,8.75,13.8,14.05,14.55,13.8,14.05,1.81
26102023,32.85,14.05,13.85,14.1,13.25,13.5,-3.91
27102023,11.23,13.5,13.5,14.1,13.5,13.7,1.48
30102023,12.77,13.7,13.7,14.1,13.65,13.75,0.36
31102023,32.22,13.75,13.75,13.95,13.6,13.8,0.36
01112023,15.56,13.8,14.0,14.1,13.7,13.8,0.0
02112023,7.81,13.8,13.8,14.2,13.8,13.9,0.72
03112023,14.1,13.9,14.1,14.4,14.0,14.05,1.08
06112023,9.22,14.05,14.0,14.7,14.0,14.5,3.2
07112023,24.17,14.5,14.7,14.7,14.4,14.45,-0.34
08112023,10.16,14.45,14.75,15.05,14.6,14.8,2.42
09112023,8.55,14.8,14.75,15.05,14.35,14.45,-2.36
10112023,20.85,14.45,14.65,16.2,14.45,15.65,8.3
13112023,11.81,15.75,15.7,15.8,15.3,15.45,-1.9
14112023,11.81,15.75,15.7,15.8,15.3,15.45,-1.9
15112023,13.44,15.45,15.5,15.75,15.25,15.35,-0.65
16112023,5.76,15.35,15.35,15.45,15.05,15.2,-0.98
17112023,7.67,15.2,15.1,15.75,14.95,15.5,1.97
20112023,35.73,15.5,15.35,17.8,15.35,16.95,9.35
21112023,62.16,16.95,17.75,18.2,17.3,17.95,5.9
22112023,52.29,17.95,18.15,18.15,16.4,16.7,-6.96
23112023,49.17,16.7,16.7,17.15,16.5,16.7,0.0
24112023,25.03,16.7,16.9,17.3,16.8,17.05,2.1
27112023,25.03,16.7,16.9,17.3,16.8,17.05,2.1
28112023,22.01,17.05,17.45,17.5,16.6,16.75,-1.76
29112023,10.51,16.75,17.0,17.0,16.5,16.55,-1.19
30112023,28.57,16.55,16.6,16.75,15.8,15.95,-3.63
01122023,14.71,15.95,16.2,16.5,15.9,16.15,1.25
04122023,55.57,16.15,16.5,16.5,16.05,16.15,0.0
05122023,51.69,16.15,16.3,16.35,15.75,16.05,-0.62
06122023,45.92,16.05,16.4,17.6,16.35,17.0,5.92
07122023,39.56,17.0,17.2,17.65,16.5,17.1,0.59
08122023,61.97,17.1,17.35,17.35,16.65,16.75,-2.05
11122023,59.55,16.75,17.0,17.0,16.45,16.55,-1.19
12122023,58.64,16.55,16.75,16.95,16.35,16.45,-0.6
13122023,60.4,16.45,16.6,16.75,16.2,16.4,-0.3
14122023,67.68,16.4,16.5,16.8,16.15,16.35,-0.3
15122023,71.03,16.35,16.5,16.5,16.15,16.2,-0.92
18122023,39.61,16.2,16.25,19.4,16.25,18.9,16.67
19122023,57.94,18.9,19.6,19.8,18.05,18.95,0.26
20122023,53.39,18.95,18.7,19.8,17.9,18.15,-4.22
21122023,52.43,18.15,18.4,19.3,17.6,18.95,4.41
22122023,59.93,18.95,19.35,19.35,18.15,18.35,-3.17
25122023,59.93,18.95,19.35,19.35,18.15,18.35,-3.17
26122023,47.27,18.35,18.6,18.85,17.75,18.2,-0.82
27122023,66.02,18.2,18.25,18.7,17.3,17.5,-3.85
28122023,58.99,17.5,17.6,17.7,16.5,16.65,-4.86
29122023,51.15,16.65,16.8,17.95,16.75,17.5,5.11
01012024,50.24,17.5,17.7,19.05,17.55,18.3,4.57
02012024,44.26,18.3,18.75,20.8,18.45,20.25,10.66
03012024,52.83,20.25,20.45,20.7,19.6,19.85,-1.98
04012024,62.59,19.85,19.9,20.2,19.45,19.55,-1.51
05012024,61.05,19.55,19.6,19.8,18.4,19.25,-1.53
08012024,51.9,19.25,19.25,20.2,19.05,19.65,2.08
09012024,47.36,19.65,19.8,20.7,19.25,20.35,3.56
10012024,63.86,20.35,20.05,20.45,19.8,19.95,-1.97
11012024,59.25,19.95,19.95,20.2,19.45,19.7,-1.25
12012024,56.94,19.7,19.7,20.4,19.2,19.35,-1.78
15012024,47.48,19.35,19.45,20.55,19.3,19.95,3.1
16012024,65.15,19.95,20.55,20.6,19.0,19.55,-2.01
17012024,45.08,19.55,19.55,19.8,18.85,19.15,-2.05
18012024,44.59,19.15,19.05,19.8,18.4,19.2,0.26
19012024,35.99,19.2,19.4,20.4,19.15,19.75,2.86
22012024,57.48,19.75,20.0,20.1,19.4,19.5,-1.27
23012024,62.38,19.5,19.5,19.75,17.9,18.25,-6.41
24012024,55.22,18.25,18.3,18.6,17.7,17.9,-1.92
25012024,42.0,17.9,18.05,18.95,18.0,18.55,3.63
29012024,52.25,18.55,18.85,19.35,18.35,18.55,0.0
30012024,28.22,18.55,18.8,19.9,18.1,19.3,4.04
31012024,48.29,19.3,19.3,19.8,18.85,18.95,-1.81
01022024,37.78,18.95,19.25,19.4,18.5,18.65,-1.58
02022024,54.32,18.65,18.85,19.2,18.4,18.5,-0.8
05022024,61.66,18.5,18.7,19.35,18.0,18.15,-1.89
06022024,46.35,18.15,18.45,21.75,18.0,21.75,19.83
07022024,35.2,21.75,21.9,24.35,20.5,23.05,5.98
08022024,48.69,23.05,23.7,23.9,22.4,23.35,1.3
09022024,41.56,23.35,24.0,24.0,21.0,21.95,-6.0
12022024,48.36,21.95,22.0,22.4,19.3,19.65,-10.48
13022024,40.6,19.65,19.05,20.15,18.7,19.25,-2.04
14022024,42.69,19.25,18.85,20.4,18.85,20.25,5.19
15022024,53.85,20.25,20.85,21.2,20.45,20.7,2.22
16022024,55.84,20.7,21.05,21.7,20.85,21.25,2.66
19022024,50.89,21.25,21.65,21.65,20.6,20.7,-2.59
20022024,52.33,20.7,20.7,21.15,20.0,20.15,-2.66
21022024,37.22,20.15,20.25,21.0,19.45,19.7,-2.23
22022024,34.15,19.7,19.9,20.85,19.2,20.35,3.3
23022024,50.84,20.35,20.5,20.7,19.8,19.9,-2.21
26022024,55.38,19.9,20.0,20.1,19.0,19.2,-3.52
27022024,54.55,19.2,19.35,19.95,18.55,18.9,-1.56
28022024,55.52,18.9,19.0,19.3,17.9,18.3,-3.17
29022024,57.31,18.3,18.3,18.5,17.95,18.35,0.27
01032024,53.81,18.35,18.55,19.35,18.3,19.15,4.36
04032024,43.97,19.3,19.3,20.5,18.6,19.6,1.55
05032024,47.2,19.6,19.6,20.7,19.15,19.4,-1.02
06032024,66.07,19.4,19.5,19.6,18.35,18.85,-2.84
07032024,64.55,18.85,18.6,19.2,18.6,18.75,-0.53
08032024,64.55,18.85,18.6,19.2,18.6,18.75,-0.53
11032024,62.74,18.75,18.95,18.95,17.9,18.2,-2.93
12032024,65.2,18.2,18.15,18.25,16.6,16.85,-7.42
13032024,61.34,16.85,16.6,17.05,15.2,15.4,-8.61
14032024,52.89,15.4,15.3,16.15,14.8,15.75,2.27
15032024,46.18,15.75,15.9,16.3,15.55,15.9,0.95
18032024,54.05,15.9,15.65,16.3,15.6,15.95,0.31
19032024,72.15,15.95,15.65,16.1,15.15,15.35,-3.76
20032024,59.4,15.35,15.25,15.65,14.55,14.9,-2.93
21032024,28.31,14.9,15.0,16.5,14.95,16.05,7.72
22032024,62.16,16.05,16.05,16.15,15.6,15.75,-1.87
25032024,62.16,16.05,16.05,16.15,15.6,15.75,-1.87
26032024,70.28,15.75,16.0,16.15,15.4,15.5,-1.59
27032024,79.58,15.5,15.4,15.75,14.5,14.8,-4.52
28032024,61.0,14.8,15.0,15.45,14.55,14.65,-1.01
29032024,61.0,14.8,15.0,15.45,14.55,14.65,-1.01
01042024,49.63,14.65,14.5,16.2,14.4,16.1,9.9
02042024,53.4,16.1,16.05,16.75,15.8,16.6,3.11
03042024,49.82,16.6,16.95,17.6,16.55,17.3,4.22
04042024,36.23,17.3,17.95,20.2,17.1,19.55,13.01
05042024,45.3,19.55,19.55,21.25,18.8,20.85,6.65
08042024,59.4,20.85,21.55,21.55,19.6,19.75,-5.28
09042024,54.62,19.75,19.95,20.9,19.4,19.5,-1.27
10042024,59.12,19.5,19.55,20.2,19.2,19.35,-0.77
11042024,59.12,19.5,19.55,20.2,19.2,19.35,-0.77
12042024,65.08,19.35,19.05,19.9,18.3,18.9,-2.33
15042024,61.35,18.9,17.8,19.3,17.3,19.1,1.06
16042024,78.66,19.1,19.1,21.0,18.5,21.0,9.95
17042024,78.66,19.1,19.1,21.0,18.5,21.0,9.95
18042024,65.17,21.0,21.4,23.1,21.15,22.15,5.48
19042024,65.19,22.15,22.0,22.25,20.9,22.1,-0.23
22042024,79.59,22.1,23.05,23.2,21.6,22.45,1.58
23042024,82.88,22.45,22.05,22.9,21.8,22.05,-1.78
24042024,94.01,22.05,22.0,22.5,21.9,22.0,-0.23
25042024,79.41,22.0,22.25,22.25,21.0,21.35,-2.95
26042024,86.5,21.35,21.35,21.8,21.35,21.6,1.17
29042024,85.89,21.6,21.95,21.95,21.5,21.7,0.46
30042024,65.37,21.7,22.0,22.7,21.65,22.05,1.61
01052024,65.37,21.7,22.0,22.7,21.65,22.05,1.61
02052024,52.35,22.05,22.35,23.25,21.15,22.9,3.85
03052024,82.41,22.9,22.95,23.0,22.4,22.6,-1.31
06052024,71.82,22.6,22.75,22.85,22.15,22.45,-0.66
07052024,79.47,22.45,23.0,23.0,21.8,22.1,-1.56
08052024,43.73,22.1,22.5,22.7,21.95,22.05,-0.23
09052024,75.1,22.05,22.2,22.25,20.15,20.8,-5.67
10052024,68.83,20.8,20.4,20.85,20.15,20.6,-0.96
13052024,61.24,20.6,20.6,20.85,19.6,20.2,-1.94
14052024,49.92,20.2,19.8,22.05,19.7,21.55,6.68
15052024,59.95,21.55,21.75,22.25,21.0,21.5,-0.23
16052024,72.05,21.5,21.9,21.9,21.0,21.05,-2.09
17052024,43.03,21.05,20.6,22.2,20.6,21.45,1.9
20052024,67.86,21.45,21.45,21.85,21.0,21.4,-0.23
21052024,59.3,21.4,21.0,22.0,20.5,21.25,-0.7
22052024,67.03,21.25,21.4,21.45,20.7,21.0,-1.18
23052024,80.14,21.0,21.05,21.35,20.6,20.7,-1.43
24052024,72.62,20.7,20.95,21.05,20.3,20.55,-0.72
27052024,80.77,20.55,20.6,20.9,20.1,20.25,-1.46
28052024,82.13,20.25,20.0,20.45,19.85,19.9,-1.73
29052024,64.88,19.9,19.7,21.1,19.7,20.7,4.02
30052024,69.39,20.7,20.95,21.1,19.65,20.1,-2.9
31052024,74.72,20.1,20.0,20.3,19.55,19.7,-1.99
03062024,75.73,19.7,19.75,20.45,19.65,19.8,0.51
04062024,86.91,19.8,20.15,20.15,17.85,18.35,-7.32
05062024,58.73,18.35,18.35,18.9,17.5,18.3,-0.27
06062024,69.17,18.3,18.45,19.85,18.35,19.55,6.83
07062024,62.31,19.55,19.9,21.5,19.4,20.0,2.3
10062024,74.64,20.0,20.9,20.9,20.01,20.21,1.05
11062024,58.83,20.21,20.38,20.8,19.87,20.21,0.0
12062024,66.89,20.21,20.25,20.5,19.56,19.97,-1.19
13062024,65.31,19.97,20.28,20.28,19.85,19.91,-0.3
14062024,57.34,19.91,19.95,20.9,19.88,20.02,0.55
17062024,57.34,19.91,19.95,20.9,19.88,20.02,0.55
18062024,62.76,20.02,20.05,20.49,19.5,19.63,-1.95
19062024,70.11,19.63,19.85,19.85,19.01,19.18,-2.29
20062024,54.25,19.18,19.38,19.58,19.0,19.09,-0.47
21062024,74.27,19.09,19.3,19.53,19.05,19.46,1.94
24062024,51.38,19.46,19.65,20.14,19.4,19.46,0.0
25062024,66.69,19.46,19.49,19.9,19.26,19.32,-0.72
26062024,50.53,19.32,19.3,19.87,19.0,19.53,1.09
27062024,76.67,19.53,19.53,19.64,19.36,19.57,0.2
28062024,78.65,19.57,19.79,19.79,19.17,19.61,0.2
01072024,72.85,19.61,19.74,20.75,19.62,20.5,4.54
02072024,46.69,20.5,20.51,21.8,20.02,21.16,3.22
03072024,69.42,21.16,21.48,21.79,20.9,20.93,-1.09
04072024,62.8,20.93,20.8,21.18,20.15,20.28,-3.11
05072024,68.76,20.28,20.7,21.8,20.1,21.02,3.65
08072024,73.56,21.02,21.44,21.92,20.5,21.02,0.0
09072024,60.3,21.02,21.24,21.99,20.95,20.97,-0.24
10072024,52.73,20.97,21.23,21.23,20.3,20.62,-1.67
11072024,58.83,20.62,20.95,20.95,20.3,20.34,-1.36
12072024,56.5,20.34,20.25,21.4,20.25,21.1,3.74
15072024,79.51,21.1,21.47,21.47,20.58,20.73,-1.75
16072024,55.0,20.73,20.97,20.97,20.12,20.27,-2.22
17072024,55.0,20.73,20.97,20.97,20.12,20.27,-2.22
18072024,45.12,20.27,20.32,21.25,19.81,20.47,0.99
19072024,70.34,20.47,20.67,20.7,19.81,20.07,-1.95
22072024,66.21,20.07,19.95,20.07,19.8,19.84,-1.15
23072024,44.43,19.84,19.85,20.24,19.0,19.75,-0.45
24072024,69.16,19.75,19.52,21.72,19.52,21.6,9.37
25072024,67.03,21.6,21.5,23.27,21.05,21.74,0.65
26072024,61.56,21.74,21.74,22.19,21.12,21.25,-2.25
29072024,53.49,21.25,21.06,21.46,20.61,20.96,-1.36
30072024,60.58,20.96,20.52,21.65,20.52,21.13,0.81
31072024,70.22,21.13,21.0,21.43,20.7,20.83,-1.42
01082024,74.88,20.83,21.39,21.39,20.25,20.46,-1.78
02082024,64.01,20.46,20.5,20.96,19.86,20.77,1.52
05082024,74.36,20.77,20.52,20.52,19.39,19.85,-4.43
06082024,65.8,19.85,20.25,20.39,19.11,19.4,-2.27
07082024,40.46,19.4,19.67,21.45,19.02,20.3,4.64
08082024,54.83,20.3,20.05,20.86,20.0,20.12,-0.89
09082024,44.91,20.12,20.53,22.78,20.2,21.83,8.5
12082024,66.97,21.83,21.99,22.4,21.23,21.38,-2.06
13082024,69.39,21.38,21.78,21.78,20.2,20.31,-5.0
14082024,72.94,20.31,20.37,20.59,19.81,19.94,-1.82
16082024,48.92,19.94,19.95,20.44,19.95,20.11,0.85
19082024,72.88,20.11,20.34,22.8,19.84,22.39,11.34
20082024,29.22,22.39,25.0,25.35,21.74,23.53,5.09
21082024,64.22,23.53,23.5,24.84,22.8,23.04,-2.08
22082024,57.66,23.04,23.37,23.9,22.51,22.61,-1.87
23082024,42.78,22.61,22.6,23.49,21.9,22.25,-1.59
26082024,49.9,22.25,22.7,23.45,22.1,22.64,1.75
27082024,71.71,22.64,22.88,22.88,21.02,21.53,-4.9
28082024,61.95,21.53,21.68,21.99,20.82,20.98,-2.55
29082024,70.98,20.98,21.19,21.8,20.65,20.73,-1.19
30082024,49.41,20.73,20.93,21.44,20.06,20.98,1.21
02092024,39.39,20.98,21.3,22.74,20.85,22.14,5.53
03092024,63.79,22.14,22.54,22.81,22.0,22.58,1.99
04092024,56.24,22.58,21.62,22.48,21.62,22.01,-2.52
05092024,51.64,22.01,22.0,22.74,21.85,21.98,-0.14
06092024,81.85,21.98,22.17,22.49,21.55,21.97,-0.05
09092024,62.41,21.97,21.96,22.22,21.52,21.79,-0.82
10092024,71.55,21.79,21.73,22.29,21.73,21.95,0.73
11092024,68.16,21.95,21.95,22.47,21.95,22.03,0.36
12092024,59.73,22.03,22.07,22.3,21.45,21.56,-2.13
13092024,57.04,21.56,21.88,22.5,21.6,21.96,1.86
16092024,63.92,21.96,22.38,22.4,21.81,21.83,-0.59
17092024,58.03,21.83,21.5,22.0,21.5,21.78,-0.23
18092024,66.76,21.78,21.96,21.96,20.8,21.15,-2.89
19092024,62.37,21.15,21.43,21.44,20.45,20.53,-2.93
20092024,55.14,20.53,20.99,21.4,20.68,21.09,2.73
23092024,72.81,21.09,21.1,21.1,20.85,20.91,-0.85
24092024,57.45,20.91,20.96,21.45,20.65,20.87,-0.19
25092024,81.95,20.87,20.98,20.99,19.97,20.02,-4.07
26092024,34.76,20.02,20.28,20.49,19.99,20.19,0.85
27092024,57.67,20.19,20.64,20.64,20.02,20.16,-0.15
30092024,36.56,20.16,20.16,20.6,20.0,20.15,-0.05
01102024,51.12,20.15,20.28,21.0,20.05,20.71,2.78
03102024,58.43,20.71,20.98,20.98,20.11,20.19,-2.51
04102024,58.45,20.19,20.19,20.49,19.45,19.61,-2.87
07102024,68.14,19.61,19.87,19.87,18.61,18.77,-4.28
08102024,49.58,18.77,19.0,19.68,18.69,19.28,2.72
09102024,53.16,19.28,19.66,20.66,19.31,20.28,5.19
10102024,79.04,20.28,20.44,20.89,20.15,20.31,0.15
11102024,66.43,20.31,20.44,20.59,19.82,19.92,-1.92
14102024,77.79,19.92,20.25,20.25,19.65,19.88,-0.2
15102024,62.87,19.88,19.55,20.0,19.52,19.58,-1.51
16102024,48.42,19.58,19.75,19.75,19.0,19.27,-1.58
17102024,58.84,19.27,19.27,19.47,18.8,18.94,-1.71
18102024,47.55,18.94,18.82,19.19,18.65,19.06,0.63
21102024,52.75,19.06,19.44,19.44,18.7,18.72,-1.78
22102024,50.33,18.72,18.75,18.91,18.01,18.05,-3.58
23102024,57.04,18.05,18.0,18.39,17.22,17.52,-2.94
24102024,49.0,17.52,17.33,17.98,17.12,17.84,1.83
25102024,67.0,17.84,17.84,17.85,17.25,17.4,-2.47
28102024,70.08,17.4,17.1,17.87,17.1,17.23,-0.98
29102024,52.28,17.23,17.79,17.79,16.91,17.09,-0.81
30102024,47.16,17.09,17.45,17.95,17.09,17.71,3.63
31102024,58.2,17.71,17.41,18.5,17.41,17.96,1.41
01112024,80.39,17.96,18.48,18.77,18.02,18.62,3.67
04112024,43.49,18.62,19.05,20.1,18.89,19.21,3.17
05112024,48.03,19.21,19.26,19.96,19.26,19.38,0.88
06112024,48.83,19.38,19.4,19.69,18.86,19.47,0.46
07112024,49.91,19.47,19.48,19.51,18.92,19.09,-1.95
08112024,74.07,19.09,19.19,19.19,18.6,18.77,-1.68
11112024,62.29,18.77,19.15,19.3,18.9,19.08,1.65
12112024,53.9,19.08,19.24,19.24,18.0,18.23,-4.45
13112024,54.64,18.23,18.22,18.22,17.11,17.23,-5.49
14112024,59.34,17.23,17.58,17.72,17.3,17.58,2.03
15112024,59.34,17.23,17.58,17.72,17.3,17.58,2.03
18112024,68.83,17.58,17.58,17.7,16.62,16.92,-3.75
19112024,67.06,16.92,17.23,17.64,16.77,16.96,0.24
20112024,67.06,16.92,17.23,17.64,16.77,16.96,0.24
21112024,53.65,16.96,16.8,17.12,16.2,16.33,-3.71
22112024,61.5,16.33,16.6,16.84,16.37,16.71,2.33
25112024,48.37,16.71,16.99,17.55,16.99,17.15,2.63
26112024,51.43,17.15,17.49,17.55,16.2,17.15,0.0
27112024,54.74,17.15,17.44,17.59,17.16,17.33,1.05
28112024,58.63,17.33,17.69,18.1,17.31,17.72,2.25
29112024,47.06,17.72,17.98,18.4,17.66,17.89,0.96
02122024,32.7,17.89,18.3,19.34,18.01,18.86,5.42
03122024,59.25,18.86,18.96,19.21,18.71,18.99,0.69
04122024,54.65,18.99,18.64,20.0,18.61,19.0,0.05
05122024,59.07,19.0,19.0,19.55,18.7,19.34,1.79
06122024,27.71,19.34,19.49,19.6,18.95,19.15,-0.98
09122024,40.43,19.15,19.15,20.75,19.15,19.7,2.87
10122024,65.29,19.7,19.89,19.93,19.3,19.56,-0.71
11122024,78.0,19.56,19.7,19.74,19.25,19.3,-1.33
12122024,29.51,19.3,19.5,19.5,19.07,19.21,-0.47
13122024,45.16,19.21,19.21,19.48,18.74,19.0,-1.09
16122024,32.17,19.0,18.83,20.13,18.83,19.56,2.95
17122024,53.48,19.56,19.0,19.64,18.76,18.95,-3.12
18122024,45.5,18.95,18.7,19.43,18.6,18.68,-1.42
19122024,34.27,18.68,18.68,19.03,18.46,18.81,0.7
20122024,70.14,18.81,18.99,19.1,18.71,18.75,-0.32
23122024,71.15,18.75,18.75,18.93,18.1,18.16,-3.15
24122024,64.33,18.16,18.05,18.3,17.31,17.97,-1.05
25122024,64.33,18.16,18.05,18.3,17.31,17.97,-1.05
26122024,64.11,17.97,17.52,18.08,17.52,17.78,-1.06
27122024,53.36,17.78,17.55,17.99,17.55,17.83,0.28
30122024,75.52,17.83,17.53,17.92,17.53,17.63,-1.12
31122024,54.91,17.63,17.36,18.97,17.35,18.18,3.12
01012025,40.15,18.18,18.2,18.79,18.11,18.18,0.0
02012025,52.2,18.18,18.48,18.68,18.18,18.52,1.87
03012025,55.69,18.52,18.44,18.99,18.17,18.3,-1.19
06012025,85.57,18.3,18.17,18.39,17.38,17.44,-4.7
07012025,47.3,17.44,17.57,18.15,17.57,18.01,3.27
08012025,73.87,18.01,18.3,18.3,18.0,18.01,0.0
09012025,72.19,18.01,18.03,18.54,17.5,18.06,0.28
10012025,60.75,18.06,18.49,18.49,17.0,17.2,-4.76
13012025,34.24,17.2,17.0,17.6,16.25,16.89,-1.8
14012025,66.71,16.89,17.08,17.28,16.71,17.01,0.71
15012025,58.89,17.01,16.78,17.38,16.78,17.1,0.53
16012025,49.63,17.1,17.39,17.39,17.0,17.19,0.53
17012025,48.57,17.19,17.01,17.45,16.5,16.88,-1.8
20012025,60.47,16.88,17.19,17.19,16.89,17.06,1.07
21012025,50.78,17.06,17.06,17.19,16.48,16.51,-3.22
22012025,63.16,16.51,16.52,16.87,16.25,16.59,0.48
23012025,36.68,16.59,16.55,17.5,16.3,16.56,-0.18
24012025,58.35,16.56,16.86,16.86,14.6,15.14,-8.57
27012025,93.0,15.14,15.14,15.14,14.5,14.54,-3.96
28012025,66.66,14.54,14.8,15.95,14.5,15.39,5.85
29012025,64.39,15.39,15.65,16.4,15.46,16.08,4.48
30012025,62.59,16.08,16.0,18.2,16.0,17.83,10.88
31012025,73.28,17.83,18.25,20.05,17.85,19.48,9.25
03022025,74.12,20.07,20.06,20.06,19.5,19.62,-2.24
04022025,71.22,19.62,19.98,20.25,19.5,19.9,1.43
05022025,59.51,19.9,20.0,20.0,19.0,19.24,-3.32
06022025,79.15,19.24,19.65,20.8,18.5,20.43,6.19
07022025,69.97,20.43,20.0,20.39,19.11,19.5,-4.55
10022025,71.91,19.5,20.0,20.0,19.0,19.35,-0.77
11022025,79.76,19.35,19.97,20.6,19.0,20.28,4.81
12022025,58.17,20.28,20.48,22.69,20.36,22.22,9.57
13022025,62.54,22.22,22.18,23.5,21.2,22.61,1.76
14022025,78.78,22.61,23.4,23.4,21.92,22.43,-0.8
17022025,68.84,22.43,22.95,23.25,22.0,22.52,0.4
18022025,81.34,22.52,23.49,23.49,22.0,22.95,1.91
19022025,68.0,22.95,23.29,27.0,23.01,25.26,10.07
20022025,39.49,25.26,25.5,29.0,25.07,27.13,7.4
21022025,64.74,27.13,27.8,31.2,27.5,30.22,11.39
24022025,25.35,30.22,32.0,36.26,31.3,36.26,19.99
15092025,35.65,31.03,32.5,37.23,32.5,33.97,9.47
16092025,55.16,33.97,34.0,35.99,33.6,34.87,2.65
17092025,62.15,34.87,35.0,35.0,32.2,32.85,-5.79
18092025,52.98,32.85,32.8,36.18,32.26,34.5,5.02
19092025,59.8,34.5,34.49,35.95,33.0,34.79,0.84
22092025,52.66,34.79,35.45,35.45,33.01,33.13,-4.77
23092025,94.02,33.13,33.0,34.6,32.49,32.86,-0.81
24092025,65.52,32.86,33.5,33.9,32.0,32.2,-2.01
25092025,48.71,32.2,33.01,33.06,31.3,32.03,-0.53
26092025,41.36,32.03,32.03,33.03,31.2,31.38,-2.03
29092025,49.4,31.38,30.55,33.0,30.55,30.93,-1.43
30092025,42.72,30.93,30.55,31.95,30.55,30.96,0.1
01102025,28.5,30.96,30.1,31.09,29.2,30.55,-1.32
03102025,48.14,30.55,29.5,33.5,29.5,33.1,8.35
06102025,64.76,33.1,32.51,33.79,32.5,32.52,-1.75
07102025,55.16,32.52,32.1,33.0,32.01,32.26,-0.8
08102025,70.49,32.26,32.98,33.0,31.0,31.57,-2.14
09102025,46.29,31.57,31.52,33.43,31.01,31.92,1.11
10102025,73.58,31.92,31.2,32.6,31.2,31.49,-1.35
13102025,82.67,31.49,31.01,31.51,30.01,30.18,-4.16
14102025,85.14,30.18,30.87,31.0,29.85,30.22,0.13
15102025,62.6,30.22,29.75,30.91,29.63,29.91,-1.03
16102025,40.56,29.91,30.05,33.02,30.05,30.94,3.44
17102025,68.7,30.94,30.53,30.9,29.4,29.71,-3.98
20102025,66.14,29.71,29.11,30.5,29.11,29.9,0.64
21102025,80.23,29.9,30.2,31.0,29.0,29.82,-0.27
22102025,80.23,29.9,30.2,31.0,29.0,29.82,-0.27
23102025,70.85,29.82,29.42,30.0,29.42,29.89,0.23
24102025,72.16,29.89,29.63,30.0,29.5,29.94,0.17
27102025,83.32,29.94,29.56,29.99,29.02,29.79,-0.5
28102025,68.93,29.79,29.3,29.92,29.27,29.8,0.03
29102025,60.44,29.8,29.8,30.17,29.43,29.55,-0.84
30102025,54.29,29.55,29.19,30.47,29.19,29.79,0.81
31102025,74.6,29.79,29.33,30.0,29.0,29.14,-2.18
03112025,85.74,29.14,29.2,29.9,29.19,29.3,0.55
04112025,70.26,29.3,29.39,29.39,27.35,28.26,-3.55
05112025,70.26,29.3,29.39,29.39,27.35,28.26,-3.55
06112025,63.94,28.26,28.3,28.9,28.03,28.5,0.85
07112025,58.48,28.5,27.5,28.8,27.05,28.16,-1.19
10112025,69.52,28.16,27.17,30.69,27.17,29.22,3.76
11112025,57.35,29.22,29.36,29.37,28.4,28.94,-0.96
12112025,70.59,28.94,28.93,29.09,28.41,28.87,-0.24
13112025,84.27,28.87,28.25,29.49,28.0,29.02,0.52
14112025,87.4,29.02,29.49,30.0,28.6,29.29,0.93
17112025,63.5,29.29,30.0,30.19,29.5,29.9,2.08
18112025,48.52,29.9,29.7,30.0,29.19,29.73,-0.57
19112025,82.15,29.73,30.5,32.0,29.25,29.87,0.47
20112025,81.37,29.87,30.5,30.5,29.16,29.73,-0.47
21112025,72.3,29.73,29.17,30.0,28.3,29.13,-2.02
24112025,73.5,29.13,28.3,29.19,28.0,28.24,-3.06
25112025,70.73,28.24,27.33,29.9,27.33,28.79,1.95
26112025,87.61,28.79,30.85,30.85,28.2,28.88,0.31
27112025,62.9,28.88,29.94,30.4,28.31,29.8,3.19
28112025,62.65,29.8,30.1,30.66,29.3,30.21,1.38
01122025,66.44,30.21,29.9,31.48,29.19,29.75,-1.52
02122025,74.55,29.75,29.02,30.87,29.02,29.69,-0.2
03122025,91.54,29.69,30.59,30.6,29.26,30.09,1.35
04122025,90.12,30.09,30.92,30.92,29.95,29.99,-0.33
05122025,56.83,29.99,30.79,30.79,29.55,30.14,0.5
08122025,88.54,30.14,30.01,30.33,29.26,29.99,-0.5
09122025,88.24,29.99,29.8,30.84,29.8,30.28,0.97
10122025,65.44,30.28,30.9,31.52,30.21,31.02,2.44
11122025,76.32,31.02,31.29,32.01,30.8,31.07,0.16
12122025,73.0,31.07,31.91,31.98,30.95,31.17,0.32
15122025,62.25,31.17,30.6,31.99,30.0,31.39,0.71
16122025,53.17,31.39,30.66,31.64,30.66,31.01,-1.21
17122025,54.83,31.01,31.26,31.47,30.55,30.57,-1.42
18122025,40.0,30.57,31.75,31.75,30.19,30.2,-1.21
19122025,50.9,30.2,31.06,31.06,30.5,30.6,1.32
22122025,67.13,30.6,31.08,31.48,30.6,31.18,1.9
23122025,49.95,31.18,31.7,31.7,30.65,30.86,-1.03
24122025,58.89,30.86,31.0,31.88,30.9,30.99,0.42
25122025,58.89,30.86,31.0,31.88,30.9,30.99,0.42
26122025,66.73,30.99,31.61,32.3,30.9,30.94,-0.16
29122025,78.35,30.94,31.56,33.89,31.5,31.87,3.01
30122025,70.37,31.87,31.4,32.46,30.89,31.66,-0.66
31122025,47.28,31.66,33.2,35.0,31.29,32.72,3.35
01012026,63.11,32.72,32.72,33.09,31.5,31.7,-3.12
02012026,66.26,31.7,33.0,33.0,31.5,31.81,0.35
05012026,67.35,31.81,31.7,33.3,31.4,31.61,-0.63
06012026,66.46,31.61,33.25,33.25,31.1,31.31,-0.95
07012026,87.24,31.31,31.3,31.98,30.9,30.91,-1.28
08012026,89.11,30.91,32.01,32.01,30.8,30.8,-0.36
09012026,90.77,30.8,32.32,32.32,30.9,30.91,0.36
12012026,76.01,30.91,30.91,31.5,29.2,30.5,-1.33
13012026,83.36,30.5,30.63,31.87,30.5,30.5,0.0
14012026,88.04,30.5,32.98,32.98,30.47,30.54,0.13
15012026,88.04,30.5,32.98,32.98,30.47,30.54,0.13
16012026,79.71,30.54,31.15,31.2,29.25,30.63,0.29
19012026,51.28,30.63,30.69,35.5,30.18,34.18,11.59
20012026,44.61,34.18,34.29,34.99,30.3,30.52,-10.71
21012026,60.19,30.52,29.2,31.8,29.2,30.52,0.0
22012026,58.84,30.52,33.5,33.5,30.51,30.86,1.11
23012026,75.26,30.86,30.86,32.0,30.5,30.56,-0.97
27012026,93.24,30.56,30.56,31.54,30.5,30.67,0.36
28012026,82.24,30.67,30.51,31.5,30.51,30.76,0.29
29012026,95.49,30.76,29.4,32.05,29.4,31.34,1.89
30012026,94.44,31.34,31.9,31.9,30.0,30.59,-2.39
02022026,94.37,30.52,29.45,31.58,29.45,30.2,-1.05
03022026,91.69,30.2,29.25,31.49,29.25,30.5,0.99
04022026,98.03,30.5,31.26,31.44,30.25,30.7,0.66
05022026,96.43,30.7,30.15,31.14,30.1,30.5,-0.65
06022026,68.32,30.5,30.49,31.0,29.5,30.54,0.13
09022026,46.5,30.54,30.54,31.6,29.78,31.26,2.36
10022026,48.14,31.26,31.51,31.51,30.71,31.02,-0.77
11022026,52.69,31.02,30.55,31.3,30.5,30.63,-1.26
12022026,52.09,30.63,31.48,31.48,30.41,31.01,1.24
13022026,29.1,31.01,31.39,31.39,30.16,30.63,-1.23
